1.645000000000000000e+03
1.647000000000000000e+03
1.648000000000000000e+03
1.648000000000000000e+03
1.651000000000000000e+03
1.654000000000000000e+03
1.653000000000000000e+03
1.657000000000000000e+03
1.655000000000000000e+03
1.658000000000000000e+03
1.657000000000000000e+03
1.658000000000000000e+03
1.658000000000000000e+03
1.658000000000000000e+03
1.659000000000000000e+03
1.655000000000000000e+03
1.653000000000000000e+03
1.653000000000000000e+03
1.654000000000000000e+03
1.653000000000000000e+03
1.653000000000000000e+03
1.653000000000000000e+03
1.652000000000000000e+03
1.653000000000000000e+03
1.655000000000000000e+03
1.655000000000000000e+03
1.655000000000000000e+03
1.658000000000000000e+03
1.659000000000000000e+03
1.659000000000000000e+03
1.659000000000000000e+03
1.663000000000000000e+03
1.661000000000000000e+03
1.657000000000000000e+03
1.657000000000000000e+03
1.653000000000000000e+03
1.649000000000000000e+03
1.645000000000000000e+03
1.641000000000000000e+03
1.627000000000000000e+03
1.618000000000000000e+03
1.609000000000000000e+03
1.596000000000000000e+03
1.584000000000000000e+03
1.568000000000000000e+03
1.558000000000000000e+03
1.551000000000000000e+03
1.543000000000000000e+03
1.543000000000000000e+03
1.552000000000000000e+03
1.566000000000000000e+03
1.586000000000000000e+03
1.615000000000000000e+03
1.650000000000000000e+03
1.694000000000000000e+03
1.739000000000000000e+03
1.791000000000000000e+03
1.843000000000000000e+03
1.895000000000000000e+03
1.947000000000000000e+03
1.999000000000000000e+03
2.057000000000000000e+03
2.105000000000000000e+03
2.150000000000000000e+03
2.197000000000000000e+03
2.241000000000000000e+03
2.283000000000000000e+03
2.321000000000000000e+03
2.363000000000000000e+03
2.398000000000000000e+03
2.432000000000000000e+03
2.465000000000000000e+03
2.501000000000000000e+03
2.530000000000000000e+03
2.558000000000000000e+03
2.581000000000000000e+03
2.593000000000000000e+03
2.598000000000000000e+03
2.591000000000000000e+03
2.566000000000000000e+03
2.531000000000000000e+03
2.492000000000000000e+03
2.434000000000000000e+03
2.374000000000000000e+03
2.305000000000000000e+03
2.234000000000000000e+03
2.160000000000000000e+03
2.090000000000000000e+03
2.011000000000000000e+03
1.948000000000000000e+03
1.890000000000000000e+03
1.838000000000000000e+03
1.793000000000000000e+03
1.753000000000000000e+03
1.722000000000000000e+03
1.694000000000000000e+03
1.669000000000000000e+03
1.645000000000000000e+03
1.618000000000000000e+03
1.598000000000000000e+03
1.574000000000000000e+03
1.549000000000000000e+03
1.522000000000000000e+03
1.503000000000000000e+03
1.486000000000000000e+03
1.472000000000000000e+03
1.462000000000000000e+03
1.456000000000000000e+03
1.458000000000000000e+03
1.470000000000000000e+03
1.478000000000000000e+03
1.494000000000000000e+03
1.518000000000000000e+03
1.535000000000000000e+03
1.561000000000000000e+03
1.586000000000000000e+03
1.600000000000000000e+03
1.617000000000000000e+03
1.630000000000000000e+03
1.639000000000000000e+03
1.643000000000000000e+03
1.641000000000000000e+03
1.638000000000000000e+03
1.634000000000000000e+03
1.627000000000000000e+03
1.618000000000000000e+03
1.615000000000000000e+03
1.609000000000000000e+03
1.600000000000000000e+03
1.598000000000000000e+03
1.593000000000000000e+03
1.590000000000000000e+03
1.587000000000000000e+03
1.593000000000000000e+03
1.592000000000000000e+03
1.594000000000000000e+03
1.597000000000000000e+03
1.600000000000000000e+03
1.600000000000000000e+03
1.602000000000000000e+03
1.604000000000000000e+03
1.607000000000000000e+03
1.605000000000000000e+03
1.607000000000000000e+03
1.607000000000000000e+03
1.604000000000000000e+03
1.605000000000000000e+03
1.603000000000000000e+03
1.604000000000000000e+03
1.601000000000000000e+03
1.600000000000000000e+03
1.600000000000000000e+03
1.600000000000000000e+03
1.600000000000000000e+03
1.600000000000000000e+03
1.601000000000000000e+03
1.600000000000000000e+03
1.601000000000000000e+03
1.601000000000000000e+03
1.606000000000000000e+03
1.607000000000000000e+03
1.610000000000000000e+03
1.612000000000000000e+03
1.613000000000000000e+03
1.616000000000000000e+03
1.616000000000000000e+03
1.618000000000000000e+03
1.621000000000000000e+03
1.621000000000000000e+03
1.623000000000000000e+03
1.621000000000000000e+03
1.623000000000000000e+03
1.621000000000000000e+03
1.621000000000000000e+03
1.621000000000000000e+03
1.623000000000000000e+03
1.621000000000000000e+03
1.621000000000000000e+03
1.626000000000000000e+03
1.627000000000000000e+03
1.634000000000000000e+03
1.635000000000000000e+03
1.635000000000000000e+03
1.637000000000000000e+03
1.638000000000000000e+03
1.645000000000000000e+03
1.642000000000000000e+03
1.644000000000000000e+03
1.644000000000000000e+03
1.643000000000000000e+03
1.641000000000000000e+03
1.641000000000000000e+03
1.642000000000000000e+03
1.645000000000000000e+03
1.642000000000000000e+03
1.639000000000000000e+03
1.639000000000000000e+03
1.638000000000000000e+03
1.641000000000000000e+03
1.645000000000000000e+03
1.646000000000000000e+03
1.648000000000000000e+03
1.648000000000000000e+03
1.648000000000000000e+03
1.653000000000000000e+03
1.655000000000000000e+03
1.661000000000000000e+03
1.663000000000000000e+03
1.666000000000000000e+03
1.667000000000000000e+03
1.670000000000000000e+03
1.671000000000000000e+03
1.674000000000000000e+03
1.677000000000000000e+03
1.677000000000000000e+03
1.675000000000000000e+03
1.675000000000000000e+03
1.675000000000000000e+03
1.674000000000000000e+03
1.674000000000000000e+03
1.675000000000000000e+03
1.674000000000000000e+03
1.675000000000000000e+03
1.676000000000000000e+03
1.678000000000000000e+03
1.680000000000000000e+03
1.681000000000000000e+03
1.685000000000000000e+03
1.687000000000000000e+03
1.691000000000000000e+03
1.695000000000000000e+03
1.700000000000000000e+03
1.701000000000000000e+03
1.701000000000000000e+03
1.703000000000000000e+03
1.705000000000000000e+03
1.707000000000000000e+03
1.710000000000000000e+03
1.711000000000000000e+03
1.712000000000000000e+03
1.712000000000000000e+03
1.711000000000000000e+03
1.712000000000000000e+03
1.712000000000000000e+03
1.714000000000000000e+03
1.712000000000000000e+03
1.714000000000000000e+03
1.714000000000000000e+03
1.722000000000000000e+03
1.721000000000000000e+03
1.722000000000000000e+03
1.723000000000000000e+03
1.728000000000000000e+03
1.728000000000000000e+03
1.731000000000000000e+03
1.733000000000000000e+03
1.735000000000000000e+03
1.735000000000000000e+03
1.738000000000000000e+03
1.741000000000000000e+03
1.744000000000000000e+03
1.744000000000000000e+03
1.747000000000000000e+03
1.755000000000000000e+03
1.761000000000000000e+03
1.766000000000000000e+03
1.769000000000000000e+03
1.773000000000000000e+03
1.776000000000000000e+03
1.780000000000000000e+03
1.783000000000000000e+03
1.791000000000000000e+03
1.792000000000000000e+03
1.793000000000000000e+03
1.796000000000000000e+03
1.802000000000000000e+03
1.805000000000000000e+03
1.807000000000000000e+03
1.808000000000000000e+03
1.809000000000000000e+03
1.810000000000000000e+03
1.811000000000000000e+03
1.813000000000000000e+03
1.819000000000000000e+03
1.822000000000000000e+03
1.821000000000000000e+03
1.825000000000000000e+03
1.824000000000000000e+03
1.826000000000000000e+03
1.826000000000000000e+03
1.824000000000000000e+03
1.825000000000000000e+03
1.823000000000000000e+03
1.819000000000000000e+03
1.821000000000000000e+03
1.814000000000000000e+03
1.810000000000000000e+03
1.809000000000000000e+03
1.808000000000000000e+03
1.806000000000000000e+03
1.804000000000000000e+03
1.799000000000000000e+03
1.795000000000000000e+03
1.798000000000000000e+03
1.796000000000000000e+03
1.796000000000000000e+03
1.794000000000000000e+03
1.794000000000000000e+03
1.793000000000000000e+03
1.792000000000000000e+03
1.791000000000000000e+03
1.789000000000000000e+03
1.790000000000000000e+03
1.783000000000000000e+03
1.779000000000000000e+03
1.776000000000000000e+03
1.774000000000000000e+03
1.770000000000000000e+03
1.765000000000000000e+03
1.755000000000000000e+03
1.744000000000000000e+03
1.737000000000000000e+03
1.728000000000000000e+03
1.720000000000000000e+03
1.710000000000000000e+03
1.695000000000000000e+03
1.682000000000000000e+03
1.674000000000000000e+03
1.662000000000000000e+03
1.651000000000000000e+03
1.643000000000000000e+03
1.632000000000000000e+03
1.625000000000000000e+03
1.622000000000000000e+03
1.616000000000000000e+03
1.616000000000000000e+03
1.616000000000000000e+03
1.615000000000000000e+03
1.613000000000000000e+03
1.614000000000000000e+03
1.614000000000000000e+03
1.614000000000000000e+03
1.612000000000000000e+03
1.613000000000000000e+03
1.615000000000000000e+03
1.611000000000000000e+03
1.613000000000000000e+03
1.612000000000000000e+03
1.611000000000000000e+03
1.610000000000000000e+03
1.611000000000000000e+03
1.609000000000000000e+03
1.607000000000000000e+03
1.608000000000000000e+03
1.607000000000000000e+03
1.610000000000000000e+03
1.607000000000000000e+03
1.607000000000000000e+03
1.607000000000000000e+03
1.605000000000000000e+03
1.603000000000000000e+03
1.606000000000000000e+03
1.609000000000000000e+03
1.605000000000000000e+03
1.603000000000000000e+03
1.604000000000000000e+03
1.607000000000000000e+03
1.609000000000000000e+03
1.606000000000000000e+03
1.610000000000000000e+03
1.609000000000000000e+03
1.606000000000000000e+03
1.606000000000000000e+03
1.606000000000000000e+03
1.606000000000000000e+03
1.606000000000000000e+03
1.609000000000000000e+03
1.609000000000000000e+03
1.610000000000000000e+03
1.612000000000000000e+03
1.614000000000000000e+03
1.616000000000000000e+03
1.616000000000000000e+03
1.616000000000000000e+03
1.619000000000000000e+03
1.618000000000000000e+03
1.616000000000000000e+03
1.617000000000000000e+03
1.617000000000000000e+03
1.621000000000000000e+03
1.616000000000000000e+03
1.617000000000000000e+03
1.616000000000000000e+03
1.616000000000000000e+03
1.616000000000000000e+03
1.616000000000000000e+03
1.616000000000000000e+03
1.616000000000000000e+03
1.616000000000000000e+03
1.616000000000000000e+03
1.617000000000000000e+03
1.617000000000000000e+03
1.618000000000000000e+03
1.620000000000000000e+03
1.619000000000000000e+03
1.616000000000000000e+03
1.616000000000000000e+03
1.616000000000000000e+03
1.616000000000000000e+03
1.614000000000000000e+03
1.611000000000000000e+03
1.609000000000000000e+03
1.607000000000000000e+03
1.607000000000000000e+03
1.607000000000000000e+03
1.611000000000000000e+03
1.611000000000000000e+03
1.612000000000000000e+03
1.611000000000000000e+03
1.614000000000000000e+03
1.616000000000000000e+03
1.615000000000000000e+03
1.616000000000000000e+03
1.616000000000000000e+03
1.616000000000000000e+03
1.616000000000000000e+03
1.616000000000000000e+03
1.617000000000000000e+03
1.618000000000000000e+03
1.617000000000000000e+03
1.618000000000000000e+03
1.616000000000000000e+03
1.620000000000000000e+03
1.616000000000000000e+03
1.618000000000000000e+03
1.617000000000000000e+03
1.617000000000000000e+03
1.619000000000000000e+03
1.617000000000000000e+03
1.619000000000000000e+03
1.618000000000000000e+03
1.618000000000000000e+03
1.621000000000000000e+03
1.618000000000000000e+03
1.619000000000000000e+03
1.622000000000000000e+03
1.622000000000000000e+03
1.621000000000000000e+03
1.623000000000000000e+03
1.625000000000000000e+03
1.623000000000000000e+03
1.625000000000000000e+03
1.618000000000000000e+03
1.621000000000000000e+03
1.621000000000000000e+03
1.620000000000000000e+03
1.621000000000000000e+03
1.620000000000000000e+03
1.617000000000000000e+03
1.621000000000000000e+03
1.622000000000000000e+03
1.621000000000000000e+03
1.619000000000000000e+03
1.619000000000000000e+03
1.622000000000000000e+03
1.626000000000000000e+03
1.623000000000000000e+03
1.625000000000000000e+03
1.625000000000000000e+03
1.626000000000000000e+03
1.627000000000000000e+03
1.627000000000000000e+03
1.626000000000000000e+03
1.626000000000000000e+03
1.627000000000000000e+03
1.627000000000000000e+03
1.630000000000000000e+03
1.631000000000000000e+03
1.633000000000000000e+03
1.633000000000000000e+03
1.632000000000000000e+03
1.633000000000000000e+03
1.632000000000000000e+03
1.632000000000000000e+03
1.630000000000000000e+03
1.631000000000000000e+03
1.630000000000000000e+03
1.631000000000000000e+03
1.630000000000000000e+03
1.630000000000000000e+03
1.630000000000000000e+03
1.630000000000000000e+03
1.633000000000000000e+03
1.629000000000000000e+03
1.629000000000000000e+03
1.633000000000000000e+03
1.630000000000000000e+03
1.630000000000000000e+03
1.631000000000000000e+03
1.632000000000000000e+03
1.632000000000000000e+03
1.632000000000000000e+03
1.634000000000000000e+03
1.637000000000000000e+03
1.635000000000000000e+03
1.634000000000000000e+03
1.635000000000000000e+03
1.635000000000000000e+03
1.637000000000000000e+03
1.636000000000000000e+03
1.633000000000000000e+03
1.636000000000000000e+03
1.634000000000000000e+03
1.635000000000000000e+03
1.635000000000000000e+03
1.637000000000000000e+03
1.636000000000000000e+03
1.638000000000000000e+03
1.635000000000000000e+03
1.639000000000000000e+03
1.641000000000000000e+03
1.641000000000000000e+03
1.641000000000000000e+03
1.645000000000000000e+03
1.645000000000000000e+03
1.641000000000000000e+03
1.643000000000000000e+03
1.643000000000000000e+03
1.642000000000000000e+03
1.642000000000000000e+03
1.642000000000000000e+03
1.642000000000000000e+03
1.645000000000000000e+03
1.647000000000000000e+03
1.645000000000000000e+03
1.648000000000000000e+03
1.648000000000000000e+03
1.648000000000000000e+03
1.648000000000000000e+03
1.649000000000000000e+03
1.650000000000000000e+03
1.650000000000000000e+03
1.651000000000000000e+03
1.649000000000000000e+03
1.649000000000000000e+03
1.648000000000000000e+03
1.647000000000000000e+03
1.648000000000000000e+03
1.646000000000000000e+03
1.646000000000000000e+03
1.648000000000000000e+03
1.645000000000000000e+03
1.647000000000000000e+03
1.647000000000000000e+03
1.649000000000000000e+03
1.648000000000000000e+03
1.648000000000000000e+03
1.649000000000000000e+03
1.648000000000000000e+03
1.648000000000000000e+03
1.648000000000000000e+03
1.649000000000000000e+03
1.650000000000000000e+03
1.649000000000000000e+03
1.655000000000000000e+03
1.659000000000000000e+03
1.664000000000000000e+03
1.669000000000000000e+03
1.676000000000000000e+03
1.680000000000000000e+03
1.689000000000000000e+03
1.694000000000000000e+03
1.702000000000000000e+03
1.711000000000000000e+03
1.713000000000000000e+03
1.720000000000000000e+03
1.728000000000000000e+03
1.729000000000000000e+03
1.731000000000000000e+03
1.739000000000000000e+03
1.739000000000000000e+03
1.743000000000000000e+03
1.744000000000000000e+03
1.745000000000000000e+03
1.744000000000000000e+03
1.745000000000000000e+03
1.747000000000000000e+03
1.750000000000000000e+03
1.749000000000000000e+03
1.754000000000000000e+03
1.758000000000000000e+03
1.760000000000000000e+03
1.760000000000000000e+03
1.761000000000000000e+03
1.759000000000000000e+03
1.760000000000000000e+03
1.760000000000000000e+03
1.755000000000000000e+03
1.752000000000000000e+03
1.757000000000000000e+03
1.754000000000000000e+03
1.748000000000000000e+03
1.749000000000000000e+03
1.744000000000000000e+03
1.745000000000000000e+03
1.744000000000000000e+03
1.743000000000000000e+03
1.744000000000000000e+03
1.739000000000000000e+03
1.739000000000000000e+03
1.739000000000000000e+03
1.733000000000000000e+03
1.730000000000000000e+03
1.729000000000000000e+03
1.728000000000000000e+03
1.727000000000000000e+03
1.724000000000000000e+03
1.723000000000000000e+03
1.719000000000000000e+03
1.716000000000000000e+03
1.713000000000000000e+03
1.712000000000000000e+03
1.706000000000000000e+03
1.698000000000000000e+03
1.698000000000000000e+03
1.690000000000000000e+03
1.681000000000000000e+03
1.679000000000000000e+03
1.670000000000000000e+03
1.664000000000000000e+03
1.661000000000000000e+03
1.655000000000000000e+03
1.651000000000000000e+03
1.648000000000000000e+03
1.646000000000000000e+03
1.645000000000000000e+03
1.645000000000000000e+03
1.642000000000000000e+03
1.645000000000000000e+03
1.647000000000000000e+03
1.648000000000000000e+03
1.648000000000000000e+03
1.648000000000000000e+03
1.648000000000000000e+03
1.651000000000000000e+03
1.650000000000000000e+03
1.651000000000000000e+03
1.651000000000000000e+03
1.649000000000000000e+03
1.649000000000000000e+03
1.650000000000000000e+03
1.649000000000000000e+03
1.648000000000000000e+03
1.648000000000000000e+03
1.649000000000000000e+03
1.650000000000000000e+03
1.650000000000000000e+03
1.649000000000000000e+03
1.650000000000000000e+03
1.650000000000000000e+03
1.649000000000000000e+03
1.651000000000000000e+03
1.653000000000000000e+03
1.651000000000000000e+03
1.651000000000000000e+03
1.654000000000000000e+03
1.652000000000000000e+03
1.653000000000000000e+03
1.654000000000000000e+03
1.652000000000000000e+03
1.649000000000000000e+03
1.651000000000000000e+03
1.651000000000000000e+03
1.651000000000000000e+03
1.651000000000000000e+03
1.654000000000000000e+03
1.654000000000000000e+03
1.654000000000000000e+03
1.651000000000000000e+03
1.651000000000000000e+03
1.651000000000000000e+03
1.654000000000000000e+03
1.653000000000000000e+03
1.653000000000000000e+03
1.654000000000000000e+03
1.657000000000000000e+03
1.657000000000000000e+03
1.658000000000000000e+03
1.658000000000000000e+03
1.658000000000000000e+03
1.655000000000000000e+03
1.659000000000000000e+03
1.659000000000000000e+03
1.659000000000000000e+03
1.663000000000000000e+03
1.658000000000000000e+03
1.654000000000000000e+03
1.657000000000000000e+03
1.657000000000000000e+03
1.653000000000000000e+03
1.651000000000000000e+03
1.655000000000000000e+03
1.649000000000000000e+03
1.644000000000000000e+03
1.637000000000000000e+03
1.627000000000000000e+03
1.616000000000000000e+03
1.606000000000000000e+03
1.597000000000000000e+03
1.584000000000000000e+03
1.570000000000000000e+03
1.558000000000000000e+03
1.551000000000000000e+03
1.545000000000000000e+03
1.535000000000000000e+03
1.547000000000000000e+03
1.562000000000000000e+03
1.579000000000000000e+03
1.600000000000000000e+03
1.634000000000000000e+03
1.674000000000000000e+03
1.715000000000000000e+03
1.761000000000000000e+03
1.811000000000000000e+03
1.865000000000000000e+03
1.916000000000000000e+03
1.969000000000000000e+03
2.021000000000000000e+03
2.078000000000000000e+03
2.126000000000000000e+03
2.172000000000000000e+03
2.219000000000000000e+03
2.259000000000000000e+03
2.304000000000000000e+03
2.342000000000000000e+03
2.379000000000000000e+03
2.415000000000000000e+03
2.449000000000000000e+03
2.480000000000000000e+03
2.513000000000000000e+03
2.544000000000000000e+03
2.570000000000000000e+03
2.587000000000000000e+03
2.600000000000000000e+03
2.593000000000000000e+03
2.581000000000000000e+03
2.549000000000000000e+03
2.512000000000000000e+03
2.464000000000000000e+03
2.412000000000000000e+03
2.347000000000000000e+03
2.275000000000000000e+03
2.199000000000000000e+03
2.128000000000000000e+03
2.054000000000000000e+03
1.984000000000000000e+03
1.923000000000000000e+03
1.872000000000000000e+03
1.819000000000000000e+03
1.778000000000000000e+03
1.744000000000000000e+03
1.716000000000000000e+03
1.691000000000000000e+03
1.665000000000000000e+03
1.645000000000000000e+03
1.617000000000000000e+03
1.594000000000000000e+03
1.569000000000000000e+03
1.543000000000000000e+03
1.517000000000000000e+03
1.491000000000000000e+03
1.472000000000000000e+03
1.465000000000000000e+03
1.456000000000000000e+03
1.456000000000000000e+03
1.457000000000000000e+03
1.470000000000000000e+03
1.482000000000000000e+03
1.497000000000000000e+03
1.519000000000000000e+03
1.547000000000000000e+03
1.566000000000000000e+03
1.584000000000000000e+03
1.599000000000000000e+03
1.609000000000000000e+03
1.621000000000000000e+03
1.625000000000000000e+03
1.626000000000000000e+03
1.620000000000000000e+03
1.617000000000000000e+03
1.613000000000000000e+03
1.607000000000000000e+03
1.599000000000000000e+03
1.594000000000000000e+03
1.586000000000000000e+03
1.586000000000000000e+03
1.584000000000000000e+03
1.584000000000000000e+03
1.584000000000000000e+03
1.585000000000000000e+03
1.591000000000000000e+03
1.595000000000000000e+03
1.598000000000000000e+03
1.600000000000000000e+03
1.606000000000000000e+03
1.608000000000000000e+03
1.613000000000000000e+03
1.615000000000000000e+03
1.614000000000000000e+03
1.616000000000000000e+03
1.613000000000000000e+03
1.612000000000000000e+03
1.613000000000000000e+03
1.608000000000000000e+03
1.606000000000000000e+03
1.603000000000000000e+03
1.603000000000000000e+03
1.604000000000000000e+03
1.601000000000000000e+03
1.602000000000000000e+03
1.602000000000000000e+03
1.601000000000000000e+03
1.602000000000000000e+03
1.605000000000000000e+03
1.603000000000000000e+03
1.605000000000000000e+03
1.613000000000000000e+03
1.611000000000000000e+03
1.613000000000000000e+03
1.616000000000000000e+03
1.616000000000000000e+03
1.618000000000000000e+03
1.621000000000000000e+03
1.626000000000000000e+03
1.622000000000000000e+03
1.626000000000000000e+03
1.623000000000000000e+03
1.623000000000000000e+03
1.620000000000000000e+03
1.617000000000000000e+03
1.621000000000000000e+03
1.621000000000000000e+03
1.622000000000000000e+03
1.623000000000000000e+03
1.623000000000000000e+03
1.626000000000000000e+03
1.629000000000000000e+03
1.629000000000000000e+03
1.634000000000000000e+03
1.635000000000000000e+03
1.636000000000000000e+03
1.637000000000000000e+03
1.639000000000000000e+03
1.637000000000000000e+03
1.637000000000000000e+03
1.639000000000000000e+03
1.643000000000000000e+03
1.643000000000000000e+03
1.644000000000000000e+03
1.643000000000000000e+03
1.644000000000000000e+03
1.648000000000000000e+03
1.648000000000000000e+03
1.648000000000000000e+03
1.651000000000000000e+03
1.651000000000000000e+03
1.654000000000000000e+03
1.655000000000000000e+03
1.658000000000000000e+03
1.654000000000000000e+03
1.657000000000000000e+03
1.657000000000000000e+03
1.659000000000000000e+03
1.658000000000000000e+03
1.659000000000000000e+03
1.662000000000000000e+03
1.664000000000000000e+03
1.664000000000000000e+03
1.666000000000000000e+03
1.671000000000000000e+03
1.671000000000000000e+03
1.675000000000000000e+03
1.676000000000000000e+03
1.678000000000000000e+03
1.679000000000000000e+03
1.677000000000000000e+03
1.680000000000000000e+03
1.679000000000000000e+03
1.680000000000000000e+03
1.680000000000000000e+03
1.682000000000000000e+03
1.680000000000000000e+03
1.683000000000000000e+03
1.687000000000000000e+03
1.694000000000000000e+03
1.693000000000000000e+03
1.695000000000000000e+03
1.699000000000000000e+03
1.698000000000000000e+03
1.701000000000000000e+03
1.703000000000000000e+03
1.703000000000000000e+03
1.705000000000000000e+03
1.703000000000000000e+03
1.706000000000000000e+03
1.708000000000000000e+03
1.707000000000000000e+03
1.710000000000000000e+03
1.712000000000000000e+03
1.714000000000000000e+03
1.712000000000000000e+03
1.714000000000000000e+03
1.718000000000000000e+03
1.717000000000000000e+03
1.723000000000000000e+03
1.724000000000000000e+03
1.725000000000000000e+03
1.727000000000000000e+03
1.728000000000000000e+03
1.732000000000000000e+03
1.732000000000000000e+03
1.734000000000000000e+03
1.737000000000000000e+03
1.740000000000000000e+03
1.744000000000000000e+03
1.744000000000000000e+03
1.746000000000000000e+03
1.747000000000000000e+03
1.751000000000000000e+03
1.751000000000000000e+03
1.755000000000000000e+03
1.760000000000000000e+03
1.763000000000000000e+03
1.767000000000000000e+03
1.774000000000000000e+03
1.776000000000000000e+03
1.781000000000000000e+03
1.785000000000000000e+03
1.788000000000000000e+03
1.791000000000000000e+03
1.797000000000000000e+03
1.802000000000000000e+03
1.807000000000000000e+03
1.810000000000000000e+03
1.810000000000000000e+03
1.814000000000000000e+03
1.818000000000000000e+03
1.821000000000000000e+03
1.824000000000000000e+03
1.823000000000000000e+03
1.825000000000000000e+03
1.829000000000000000e+03
1.829000000000000000e+03
1.828000000000000000e+03
1.833000000000000000e+03
1.831000000000000000e+03
1.835000000000000000e+03
1.835000000000000000e+03
1.835000000000000000e+03
1.831000000000000000e+03
1.830000000000000000e+03
1.825000000000000000e+03
1.821000000000000000e+03
1.819000000000000000e+03
1.814000000000000000e+03
1.808000000000000000e+03
1.805000000000000000e+03
1.802000000000000000e+03
1.797000000000000000e+03
1.792000000000000000e+03
1.789000000000000000e+03
1.786000000000000000e+03
1.787000000000000000e+03
1.784000000000000000e+03
1.781000000000000000e+03
1.787000000000000000e+03
1.791000000000000000e+03
1.789000000000000000e+03
1.787000000000000000e+03
1.789000000000000000e+03
1.790000000000000000e+03
1.790000000000000000e+03
1.787000000000000000e+03
1.781000000000000000e+03
1.776000000000000000e+03
1.768000000000000000e+03
1.758000000000000000e+03
1.746000000000000000e+03
1.739000000000000000e+03
1.725000000000000000e+03
1.712000000000000000e+03
1.705000000000000000e+03
1.690000000000000000e+03
1.679000000000000000e+03
1.664000000000000000e+03
1.658000000000000000e+03
1.650000000000000000e+03
1.639000000000000000e+03
1.633000000000000000e+03
1.625000000000000000e+03
1.620000000000000000e+03
1.617000000000000000e+03
1.616000000000000000e+03
1.615000000000000000e+03
1.611000000000000000e+03
1.609000000000000000e+03
1.611000000000000000e+03
1.606000000000000000e+03
1.605000000000000000e+03
1.607000000000000000e+03
1.607000000000000000e+03
1.607000000000000000e+03
1.607000000000000000e+03
1.605000000000000000e+03
1.605000000000000000e+03
1.607000000000000000e+03
1.606000000000000000e+03
1.609000000000000000e+03
1.606000000000000000e+03
1.606000000000000000e+03
1.607000000000000000e+03
1.607000000000000000e+03
1.605000000000000000e+03
1.606000000000000000e+03
1.609000000000000000e+03
1.607000000000000000e+03
1.610000000000000000e+03
1.609000000000000000e+03
1.605000000000000000e+03
1.604000000000000000e+03
1.604000000000000000e+03
1.601000000000000000e+03
1.600000000000000000e+03
1.600000000000000000e+03
1.600000000000000000e+03
1.601000000000000000e+03
1.600000000000000000e+03
1.600000000000000000e+03
1.600000000000000000e+03
1.600000000000000000e+03
1.602000000000000000e+03
1.601000000000000000e+03
1.601000000000000000e+03
1.605000000000000000e+03
1.603000000000000000e+03
1.607000000000000000e+03
1.611000000000000000e+03
1.608000000000000000e+03
1.611000000000000000e+03
1.613000000000000000e+03
1.611000000000000000e+03
1.615000000000000000e+03
1.614000000000000000e+03
1.616000000000000000e+03
1.612000000000000000e+03
1.614000000000000000e+03
1.613000000000000000e+03
1.607000000000000000e+03
1.608000000000000000e+03
1.610000000000000000e+03
1.605000000000000000e+03
1.605000000000000000e+03
1.606000000000000000e+03
1.610000000000000000e+03
1.610000000000000000e+03
1.611000000000000000e+03
1.616000000000000000e+03
1.616000000000000000e+03
1.616000000000000000e+03
1.618000000000000000e+03
1.618000000000000000e+03
1.621000000000000000e+03
1.618000000000000000e+03
1.617000000000000000e+03
1.617000000000000000e+03
1.619000000000000000e+03
1.621000000000000000e+03
1.618000000000000000e+03
1.617000000000000000e+03
1.619000000000000000e+03
1.622000000000000000e+03
1.622000000000000000e+03
1.621000000000000000e+03
1.623000000000000000e+03
1.629000000000000000e+03
1.629000000000000000e+03
1.629000000000000000e+03
1.628000000000000000e+03
1.631000000000000000e+03
1.630000000000000000e+03
1.628000000000000000e+03
1.632000000000000000e+03
1.628000000000000000e+03
1.627000000000000000e+03
1.627000000000000000e+03
1.627000000000000000e+03
1.627000000000000000e+03
1.629000000000000000e+03
1.623000000000000000e+03
1.623000000000000000e+03
1.625000000000000000e+03
1.626000000000000000e+03
1.620000000000000000e+03
1.626000000000000000e+03
1.622000000000000000e+03
1.620000000000000000e+03
1.620000000000000000e+03
1.621000000000000000e+03
1.625000000000000000e+03
1.627000000000000000e+03
1.629000000000000000e+03
1.630000000000000000e+03
1.630000000000000000e+03
1.637000000000000000e+03
1.635000000000000000e+03
1.635000000000000000e+03
1.635000000000000000e+03
1.638000000000000000e+03
1.634000000000000000e+03
1.634000000000000000e+03
1.634000000000000000e+03
1.633000000000000000e+03
1.631000000000000000e+03
1.631000000000000000e+03
1.627000000000000000e+03
1.623000000000000000e+03
1.623000000000000000e+03
1.619000000000000000e+03
1.623000000000000000e+03
1.621000000000000000e+03
1.618000000000000000e+03
1.619000000000000000e+03
1.621000000000000000e+03
1.621000000000000000e+03
1.622000000000000000e+03
1.626000000000000000e+03
1.627000000000000000e+03
1.626000000000000000e+03
1.627000000000000000e+03
1.629000000000000000e+03
1.631000000000000000e+03
1.633000000000000000e+03
1.633000000000000000e+03
1.638000000000000000e+03
1.639000000000000000e+03
1.641000000000000000e+03
1.641000000000000000e+03
1.642000000000000000e+03
1.642000000000000000e+03
1.641000000000000000e+03
1.639000000000000000e+03
1.646000000000000000e+03
1.639000000000000000e+03
1.637000000000000000e+03
1.636000000000000000e+03
1.633000000000000000e+03
1.633000000000000000e+03
1.633000000000000000e+03
1.632000000000000000e+03
1.629000000000000000e+03
1.633000000000000000e+03
1.632000000000000000e+03
1.634000000000000000e+03
1.637000000000000000e+03
1.633000000000000000e+03
1.639000000000000000e+03
1.642000000000000000e+03
1.639000000000000000e+03
1.642000000000000000e+03
1.642000000000000000e+03
1.642000000000000000e+03
1.641000000000000000e+03
1.637000000000000000e+03
1.637000000000000000e+03
1.635000000000000000e+03
1.635000000000000000e+03
1.634000000000000000e+03
1.632000000000000000e+03
1.632000000000000000e+03
1.630000000000000000e+03
1.631000000000000000e+03
1.632000000000000000e+03
1.631000000000000000e+03
1.634000000000000000e+03
1.636000000000000000e+03
1.638000000000000000e+03
1.639000000000000000e+03
1.642000000000000000e+03
1.642000000000000000e+03
1.644000000000000000e+03
1.643000000000000000e+03
1.647000000000000000e+03
1.648000000000000000e+03
1.648000000000000000e+03
1.648000000000000000e+03
1.649000000000000000e+03
1.648000000000000000e+03
1.648000000000000000e+03
1.648000000000000000e+03
1.648000000000000000e+03
1.645000000000000000e+03
1.647000000000000000e+03
1.642000000000000000e+03
1.641000000000000000e+03
1.643000000000000000e+03
1.641000000000000000e+03
1.643000000000000000e+03
1.643000000000000000e+03
1.644000000000000000e+03
1.645000000000000000e+03
1.644000000000000000e+03
1.648000000000000000e+03
1.648000000000000000e+03
1.649000000000000000e+03
1.650000000000000000e+03
1.648000000000000000e+03
1.649000000000000000e+03
1.649000000000000000e+03
1.648000000000000000e+03
1.648000000000000000e+03
1.645000000000000000e+03
1.643000000000000000e+03
1.639000000000000000e+03
1.641000000000000000e+03
1.636000000000000000e+03
1.637000000000000000e+03
1.638000000000000000e+03
1.638000000000000000e+03
1.641000000000000000e+03
1.646000000000000000e+03
1.649000000000000000e+03
1.655000000000000000e+03
1.664000000000000000e+03
1.667000000000000000e+03
1.678000000000000000e+03
1.680000000000000000e+03
1.689000000000000000e+03
1.693000000000000000e+03
1.699000000000000000e+03
1.709000000000000000e+03
1.712000000000000000e+03
1.715000000000000000e+03
1.723000000000000000e+03
1.728000000000000000e+03
1.732000000000000000e+03
1.734000000000000000e+03
1.738000000000000000e+03
1.739000000000000000e+03
1.737000000000000000e+03
1.743000000000000000e+03
1.743000000000000000e+03
1.747000000000000000e+03
1.744000000000000000e+03
1.746000000000000000e+03
1.746000000000000000e+03
1.749000000000000000e+03
1.754000000000000000e+03
1.753000000000000000e+03
1.757000000000000000e+03
1.759000000000000000e+03
1.758000000000000000e+03
1.758000000000000000e+03
1.760000000000000000e+03
1.759000000000000000e+03
1.759000000000000000e+03
1.760000000000000000e+03
1.758000000000000000e+03
1.761000000000000000e+03
1.758000000000000000e+03
1.762000000000000000e+03
1.760000000000000000e+03
1.762000000000000000e+03
1.760000000000000000e+03
1.759000000000000000e+03
1.759000000000000000e+03
1.755000000000000000e+03
1.751000000000000000e+03
1.746000000000000000e+03
1.742000000000000000e+03
1.739000000000000000e+03
1.733000000000000000e+03
1.728000000000000000e+03
1.726000000000000000e+03
1.718000000000000000e+03
1.712000000000000000e+03
1.710000000000000000e+03
1.702000000000000000e+03
1.700000000000000000e+03
1.693000000000000000e+03
1.686000000000000000e+03
1.683000000000000000e+03
1.680000000000000000e+03
1.679000000000000000e+03
1.669000000000000000e+03
1.666000000000000000e+03
1.661000000000000000e+03
1.659000000000000000e+03
1.653000000000000000e+03
1.647000000000000000e+03
1.646000000000000000e+03
1.638000000000000000e+03
1.638000000000000000e+03
1.631000000000000000e+03
1.628000000000000000e+03
1.627000000000000000e+03
1.626000000000000000e+03
1.627000000000000000e+03
1.629000000000000000e+03
1.632000000000000000e+03
1.633000000000000000e+03
1.638000000000000000e+03
1.639000000000000000e+03
1.643000000000000000e+03
1.648000000000000000e+03
1.649000000000000000e+03
1.649000000000000000e+03
1.653000000000000000e+03
1.653000000000000000e+03
1.653000000000000000e+03
1.654000000000000000e+03
1.651000000000000000e+03
1.654000000000000000e+03
1.654000000000000000e+03
1.652000000000000000e+03
1.648000000000000000e+03
1.651000000000000000e+03
1.651000000000000000e+03
1.648000000000000000e+03
1.648000000000000000e+03
1.647000000000000000e+03
1.646000000000000000e+03
1.647000000000000000e+03
1.646000000000000000e+03
1.644000000000000000e+03
1.643000000000000000e+03
1.644000000000000000e+03
1.642000000000000000e+03
1.643000000000000000e+03
1.644000000000000000e+03
1.646000000000000000e+03
1.643000000000000000e+03
1.646000000000000000e+03
1.644000000000000000e+03
1.644000000000000000e+03
1.644000000000000000e+03
1.642000000000000000e+03
1.643000000000000000e+03
1.643000000000000000e+03
1.645000000000000000e+03
1.642000000000000000e+03
1.640000000000000000e+03
1.647000000000000000e+03
1.645000000000000000e+03
1.643000000000000000e+03
1.645000000000000000e+03
1.645000000000000000e+03
1.648000000000000000e+03
1.648000000000000000e+03
1.651000000000000000e+03
1.654000000000000000e+03
1.654000000000000000e+03
1.655000000000000000e+03
1.661000000000000000e+03
1.661000000000000000e+03
1.661000000000000000e+03
1.661000000000000000e+03
1.662000000000000000e+03
1.662000000000000000e+03
1.659000000000000000e+03
1.655000000000000000e+03
1.648000000000000000e+03
1.643000000000000000e+03
1.633000000000000000e+03
1.621000000000000000e+03
1.616000000000000000e+03
1.602000000000000000e+03
1.595000000000000000e+03
1.578000000000000000e+03
1.566000000000000000e+03
1.552000000000000000e+03
1.551000000000000000e+03
1.547000000000000000e+03
1.552000000000000000e+03
1.565000000000000000e+03
1.584000000000000000e+03
1.609000000000000000e+03
1.643000000000000000e+03
1.680000000000000000e+03
1.728000000000000000e+03
1.777000000000000000e+03
1.829000000000000000e+03
1.881000000000000000e+03
1.936000000000000000e+03
1.989000000000000000e+03
2.041000000000000000e+03
2.095000000000000000e+03
2.144000000000000000e+03
2.187000000000000000e+03
2.236000000000000000e+03
2.277000000000000000e+03
2.318000000000000000e+03
2.359000000000000000e+03
2.390000000000000000e+03
2.432000000000000000e+03
2.463000000000000000e+03
2.497000000000000000e+03
2.528000000000000000e+03
2.553000000000000000e+03
2.579000000000000000e+03
2.594000000000000000e+03
2.600000000000000000e+03
2.594000000000000000e+03
2.576000000000000000e+03
2.543000000000000000e+03
2.497000000000000000e+03
2.448000000000000000e+03
2.388000000000000000e+03
2.320000000000000000e+03
2.254000000000000000e+03
2.176000000000000000e+03
2.107000000000000000e+03
2.032000000000000000e+03
1.966000000000000000e+03
1.904000000000000000e+03
1.851000000000000000e+03
1.806000000000000000e+03
1.773000000000000000e+03
1.733000000000000000e+03
1.705000000000000000e+03
1.680000000000000000e+03
1.655000000000000000e+03
1.631000000000000000e+03
1.607000000000000000e+03
1.585000000000000000e+03
1.561000000000000000e+03
1.533000000000000000e+03
1.515000000000000000e+03
1.495000000000000000e+03
1.479000000000000000e+03
1.469000000000000000e+03
1.466000000000000000e+03
1.465000000000000000e+03
1.471000000000000000e+03
1.481000000000000000e+03
1.493000000000000000e+03
1.514000000000000000e+03
1.535000000000000000e+03
1.559000000000000000e+03
1.579000000000000000e+03
1.598000000000000000e+03
1.614000000000000000e+03
1.627000000000000000e+03
1.630000000000000000e+03
1.633000000000000000e+03
1.635000000000000000e+03
1.630000000000000000e+03
1.626000000000000000e+03
1.617000000000000000e+03
1.609000000000000000e+03
1.601000000000000000e+03
1.594000000000000000e+03
1.587000000000000000e+03
1.584000000000000000e+03
1.584000000000000000e+03
1.577000000000000000e+03
1.581000000000000000e+03
1.584000000000000000e+03
1.584000000000000000e+03
1.588000000000000000e+03
1.593000000000000000e+03
1.598000000000000000e+03
1.601000000000000000e+03
1.601000000000000000e+03
1.607000000000000000e+03
1.611000000000000000e+03
1.612000000000000000e+03
1.616000000000000000e+03
1.610000000000000000e+03
1.610000000000000000e+03
1.606000000000000000e+03
1.600000000000000000e+03
1.602000000000000000e+03
1.600000000000000000e+03
1.600000000000000000e+03
1.600000000000000000e+03
1.600000000000000000e+03
1.600000000000000000e+03
1.600000000000000000e+03
1.604000000000000000e+03
1.602000000000000000e+03
1.606000000000000000e+03
1.609000000000000000e+03
1.613000000000000000e+03
1.616000000000000000e+03
1.617000000000000000e+03
1.619000000000000000e+03
1.622000000000000000e+03
1.621000000000000000e+03
1.625000000000000000e+03
1.625000000000000000e+03
1.627000000000000000e+03
1.630000000000000000e+03
1.625000000000000000e+03
1.619000000000000000e+03
1.618000000000000000e+03
1.619000000000000000e+03
1.619000000000000000e+03
1.618000000000000000e+03
1.622000000000000000e+03
1.622000000000000000e+03
1.622000000000000000e+03
1.626000000000000000e+03
1.631000000000000000e+03
1.631000000000000000e+03
1.631000000000000000e+03
1.631000000000000000e+03
1.631000000000000000e+03
1.632000000000000000e+03
1.631000000000000000e+03
1.634000000000000000e+03
1.635000000000000000e+03
1.635000000000000000e+03
1.635000000000000000e+03
1.635000000000000000e+03
1.640000000000000000e+03
1.644000000000000000e+03
1.647000000000000000e+03
1.645000000000000000e+03
1.639000000000000000e+03
1.648000000000000000e+03
1.646000000000000000e+03
1.648000000000000000e+03
1.648000000000000000e+03
1.649000000000000000e+03
1.651000000000000000e+03
1.654000000000000000e+03
1.655000000000000000e+03
1.658000000000000000e+03
1.661000000000000000e+03
1.661000000000000000e+03
1.663000000000000000e+03
1.663000000000000000e+03
1.663000000000000000e+03
1.661000000000000000e+03
1.663000000000000000e+03
1.663000000000000000e+03
1.662000000000000000e+03
1.663000000000000000e+03
1.664000000000000000e+03
1.666000000000000000e+03
1.670000000000000000e+03
1.678000000000000000e+03
1.676000000000000000e+03
1.675000000000000000e+03
1.679000000000000000e+03
1.680000000000000000e+03
1.680000000000000000e+03
1.681000000000000000e+03
1.680000000000000000e+03
1.680000000000000000e+03
1.685000000000000000e+03
1.685000000000000000e+03
1.685000000000000000e+03
1.687000000000000000e+03
1.687000000000000000e+03
1.691000000000000000e+03
1.694000000000000000e+03
1.698000000000000000e+03
1.701000000000000000e+03
1.706000000000000000e+03
1.705000000000000000e+03
1.710000000000000000e+03
1.712000000000000000e+03
1.712000000000000000e+03
1.713000000000000000e+03
1.714000000000000000e+03
1.718000000000000000e+03
1.713000000000000000e+03
1.713000000000000000e+03
1.717000000000000000e+03
1.720000000000000000e+03
1.723000000000000000e+03
1.724000000000000000e+03
1.727000000000000000e+03
1.728000000000000000e+03
1.728000000000000000e+03
1.729000000000000000e+03
1.731000000000000000e+03
1.734000000000000000e+03
1.735000000000000000e+03
1.740000000000000000e+03
1.741000000000000000e+03
1.743000000000000000e+03
1.745000000000000000e+03
1.749000000000000000e+03
1.753000000000000000e+03
1.755000000000000000e+03
1.761000000000000000e+03
1.763000000000000000e+03
1.769000000000000000e+03
1.772000000000000000e+03
1.779000000000000000e+03
1.779000000000000000e+03
1.782000000000000000e+03
1.787000000000000000e+03
1.791000000000000000e+03
1.792000000000000000e+03
1.795000000000000000e+03
1.796000000000000000e+03
1.801000000000000000e+03
1.804000000000000000e+03
1.807000000000000000e+03
1.808000000000000000e+03
1.808000000000000000e+03
1.812000000000000000e+03
1.815000000000000000e+03
1.821000000000000000e+03
1.823000000000000000e+03
1.827000000000000000e+03
1.826000000000000000e+03
1.825000000000000000e+03
1.829000000000000000e+03
1.828000000000000000e+03
1.827000000000000000e+03
1.825000000000000000e+03
1.821000000000000000e+03
1.825000000000000000e+03
1.814000000000000000e+03
1.810000000000000000e+03
1.808000000000000000e+03
1.808000000000000000e+03
1.802000000000000000e+03
1.799000000000000000e+03
1.799000000000000000e+03
1.795000000000000000e+03
1.792000000000000000e+03
1.792000000000000000e+03
1.792000000000000000e+03
1.792000000000000000e+03
1.790000000000000000e+03
1.793000000000000000e+03
1.791000000000000000e+03
1.792000000000000000e+03
1.792000000000000000e+03
1.792000000000000000e+03
1.795000000000000000e+03
1.793000000000000000e+03
1.792000000000000000e+03
1.787000000000000000e+03
1.781000000000000000e+03
1.778000000000000000e+03
1.775000000000000000e+03
1.761000000000000000e+03
1.749000000000000000e+03
1.741000000000000000e+03
1.728000000000000000e+03
1.719000000000000000e+03
1.708000000000000000e+03
1.693000000000000000e+03
1.684000000000000000e+03
1.671000000000000000e+03
1.664000000000000000e+03
1.652000000000000000e+03
1.647000000000000000e+03
1.637000000000000000e+03
1.631000000000000000e+03
1.625000000000000000e+03
1.620000000000000000e+03
1.622000000000000000e+03
1.618000000000000000e+03
1.617000000000000000e+03
1.616000000000000000e+03
1.616000000000000000e+03
1.616000000000000000e+03
1.616000000000000000e+03
1.616000000000000000e+03
1.617000000000000000e+03
1.615000000000000000e+03
1.614000000000000000e+03
1.610000000000000000e+03
1.605000000000000000e+03
1.606000000000000000e+03
1.601000000000000000e+03
1.598000000000000000e+03
1.600000000000000000e+03
1.598000000000000000e+03
1.595000000000000000e+03
1.593000000000000000e+03
1.594000000000000000e+03
1.594000000000000000e+03
1.593000000000000000e+03
1.598000000000000000e+03
1.598000000000000000e+03
1.599000000000000000e+03
1.601000000000000000e+03
1.602000000000000000e+03
1.604000000000000000e+03
1.607000000000000000e+03
1.611000000000000000e+03
1.615000000000000000e+03
1.616000000000000000e+03
1.618000000000000000e+03
1.617000000000000000e+03
1.617000000000000000e+03
1.618000000000000000e+03
1.616000000000000000e+03
1.616000000000000000e+03
1.616000000000000000e+03
1.614000000000000000e+03
1.615000000000000000e+03
1.610000000000000000e+03
1.607000000000000000e+03
1.605000000000000000e+03
1.607000000000000000e+03
1.607000000000000000e+03
1.605000000000000000e+03
1.606000000000000000e+03
1.609000000000000000e+03
1.611000000000000000e+03
1.616000000000000000e+03
1.614000000000000000e+03
1.616000000000000000e+03
1.616000000000000000e+03
1.616000000000000000e+03
1.617000000000000000e+03
1.618000000000000000e+03
1.616000000000000000e+03
1.616000000000000000e+03
1.616000000000000000e+03
1.616000000000000000e+03
1.618000000000000000e+03
1.616000000000000000e+03
1.616000000000000000e+03
1.619000000000000000e+03
1.619000000000000000e+03
1.621000000000000000e+03
1.622000000000000000e+03
1.620000000000000000e+03
1.619000000000000000e+03
1.621000000000000000e+03
1.621000000000000000e+03
1.619000000000000000e+03
1.616000000000000000e+03
1.618000000000000000e+03
1.617000000000000000e+03
1.616000000000000000e+03
1.617000000000000000e+03
1.617000000000000000e+03
1.621000000000000000e+03
1.619000000000000000e+03
1.623000000000000000e+03
1.626000000000000000e+03
1.627000000000000000e+03
1.627000000000000000e+03
1.627000000000000000e+03
1.631000000000000000e+03
1.632000000000000000e+03
1.629000000000000000e+03
1.632000000000000000e+03
1.630000000000000000e+03
1.629000000000000000e+03
1.629000000000000000e+03
1.625000000000000000e+03
1.629000000000000000e+03
1.627000000000000000e+03
1.624000000000000000e+03
1.624000000000000000e+03
1.624000000000000000e+03
1.627000000000000000e+03
1.626000000000000000e+03
1.627000000000000000e+03
1.630000000000000000e+03
1.629000000000000000e+03
1.631000000000000000e+03
1.629000000000000000e+03
1.626000000000000000e+03
1.626000000000000000e+03
1.621000000000000000e+03
1.626000000000000000e+03
1.622000000000000000e+03
1.617000000000000000e+03
1.619000000000000000e+03
1.618000000000000000e+03
1.618000000000000000e+03
1.619000000000000000e+03
1.620000000000000000e+03
1.623000000000000000e+03
1.626000000000000000e+03
1.629000000000000000e+03
1.630000000000000000e+03
1.629000000000000000e+03
1.633000000000000000e+03
1.633000000000000000e+03
1.637000000000000000e+03
1.639000000000000000e+03
1.638000000000000000e+03
1.639000000000000000e+03
1.641000000000000000e+03
1.638000000000000000e+03
1.637000000000000000e+03
1.638000000000000000e+03
1.637000000000000000e+03
1.637000000000000000e+03
1.633000000000000000e+03
1.635000000000000000e+03
1.634000000000000000e+03
1.632000000000000000e+03
1.632000000000000000e+03
1.628000000000000000e+03
1.627000000000000000e+03
1.627000000000000000e+03
1.626000000000000000e+03
1.626000000000000000e+03
1.630000000000000000e+03
1.630000000000000000e+03
1.629000000000000000e+03
1.630000000000000000e+03
1.631000000000000000e+03
1.631000000000000000e+03
1.632000000000000000e+03
1.633000000000000000e+03
1.632000000000000000e+03
1.633000000000000000e+03
1.633000000000000000e+03
1.633000000000000000e+03
1.632000000000000000e+03
1.634000000000000000e+03
1.633000000000000000e+03
1.633000000000000000e+03
1.635000000000000000e+03
1.635000000000000000e+03
1.636000000000000000e+03
1.638000000000000000e+03
1.641000000000000000e+03
1.639000000000000000e+03
1.645000000000000000e+03
1.639000000000000000e+03
1.643000000000000000e+03
1.638000000000000000e+03
1.638000000000000000e+03
1.635000000000000000e+03
1.635000000000000000e+03
1.634000000000000000e+03
1.631000000000000000e+03
1.633000000000000000e+03
1.632000000000000000e+03
1.631000000000000000e+03
1.635000000000000000e+03
1.634000000000000000e+03
1.639000000000000000e+03
1.642000000000000000e+03
1.645000000000000000e+03
1.646000000000000000e+03
1.647000000000000000e+03
1.648000000000000000e+03
1.649000000000000000e+03
1.650000000000000000e+03
1.649000000000000000e+03
1.649000000000000000e+03
1.648000000000000000e+03
1.648000000000000000e+03
1.648000000000000000e+03
1.646000000000000000e+03
1.645000000000000000e+03
1.645000000000000000e+03
1.643000000000000000e+03
1.638000000000000000e+03
1.643000000000000000e+03
1.643000000000000000e+03
1.647000000000000000e+03
1.648000000000000000e+03
1.646000000000000000e+03
1.647000000000000000e+03
1.647000000000000000e+03
1.648000000000000000e+03
1.648000000000000000e+03
1.648000000000000000e+03
1.647000000000000000e+03
1.648000000000000000e+03
1.648000000000000000e+03
1.648000000000000000e+03
1.648000000000000000e+03
1.648000000000000000e+03
1.647000000000000000e+03
1.647000000000000000e+03
1.647000000000000000e+03
1.646000000000000000e+03
1.644000000000000000e+03
1.641000000000000000e+03
1.641000000000000000e+03
1.642000000000000000e+03
1.641000000000000000e+03
1.645000000000000000e+03
1.641000000000000000e+03
1.643000000000000000e+03
1.647000000000000000e+03
1.649000000000000000e+03
1.653000000000000000e+03
1.659000000000000000e+03
1.664000000000000000e+03
1.671000000000000000e+03
1.680000000000000000e+03
1.685000000000000000e+03
1.689000000000000000e+03
1.699000000000000000e+03
1.707000000000000000e+03
1.711000000000000000e+03
1.713000000000000000e+03
1.716000000000000000e+03
1.725000000000000000e+03
1.728000000000000000e+03
1.729000000000000000e+03
1.733000000000000000e+03
1.737000000000000000e+03
1.740000000000000000e+03
1.741000000000000000e+03
1.744000000000000000e+03
1.744000000000000000e+03
1.745000000000000000e+03
1.748000000000000000e+03
1.749000000000000000e+03
1.751000000000000000e+03
1.754000000000000000e+03
1.755000000000000000e+03
1.759000000000000000e+03
1.759000000000000000e+03
1.759000000000000000e+03
1.761000000000000000e+03
1.762000000000000000e+03
1.763000000000000000e+03
1.765000000000000000e+03
1.763000000000000000e+03
1.763000000000000000e+03
1.767000000000000000e+03
1.761000000000000000e+03
1.758000000000000000e+03
1.758000000000000000e+03
1.755000000000000000e+03
1.751000000000000000e+03
1.747000000000000000e+03
1.750000000000000000e+03
1.745000000000000000e+03
1.744000000000000000e+03
1.743000000000000000e+03
1.741000000000000000e+03
1.737000000000000000e+03
1.734000000000000000e+03
1.734000000000000000e+03
1.727000000000000000e+03
1.728000000000000000e+03
1.728000000000000000e+03
1.723000000000000000e+03
1.714000000000000000e+03
1.712000000000000000e+03
1.708000000000000000e+03
1.703000000000000000e+03
1.699000000000000000e+03
1.693000000000000000e+03
1.685000000000000000e+03
1.680000000000000000e+03
1.677000000000000000e+03
1.667000000000000000e+03
1.662000000000000000e+03
1.654000000000000000e+03
1.648000000000000000e+03
1.646000000000000000e+03
1.636000000000000000e+03
1.634000000000000000e+03
1.623000000000000000e+03
1.629000000000000000e+03
1.626000000000000000e+03
1.627000000000000000e+03
1.627000000000000000e+03
1.630000000000000000e+03
1.633000000000000000e+03
1.635000000000000000e+03
1.641000000000000000e+03
1.645000000000000000e+03
1.648000000000000000e+03
1.650000000000000000e+03
1.653000000000000000e+03
1.653000000000000000e+03
1.653000000000000000e+03
1.655000000000000000e+03
1.655000000000000000e+03
1.655000000000000000e+03
1.654000000000000000e+03
1.655000000000000000e+03
1.657000000000000000e+03
1.657000000000000000e+03
1.654000000000000000e+03
1.651000000000000000e+03
1.657000000000000000e+03
1.651000000000000000e+03
1.653000000000000000e+03
1.652000000000000000e+03
1.650000000000000000e+03
1.653000000000000000e+03
1.651000000000000000e+03
1.651000000000000000e+03
1.649000000000000000e+03
1.649000000000000000e+03
1.649000000000000000e+03
1.648000000000000000e+03
1.648000000000000000e+03
1.647000000000000000e+03
1.647000000000000000e+03
1.646000000000000000e+03
1.646000000000000000e+03
1.643000000000000000e+03
1.647000000000000000e+03
1.641000000000000000e+03
1.645000000000000000e+03
1.644000000000000000e+03
1.642000000000000000e+03
1.639000000000000000e+03
1.643000000000000000e+03
1.642000000000000000e+03
1.645000000000000000e+03
1.643000000000000000e+03
1.641000000000000000e+03
1.643000000000000000e+03
1.645000000000000000e+03
1.648000000000000000e+03
1.645000000000000000e+03
1.646000000000000000e+03
1.645000000000000000e+03
1.645000000000000000e+03
1.647000000000000000e+03
1.648000000000000000e+03
1.647000000000000000e+03
1.648000000000000000e+03
1.648000000000000000e+03
1.648000000000000000e+03
1.649000000000000000e+03
1.647000000000000000e+03
1.645000000000000000e+03
1.638000000000000000e+03
1.632000000000000000e+03
1.622000000000000000e+03
1.616000000000000000e+03
1.609000000000000000e+03
1.599000000000000000e+03
1.584000000000000000e+03
1.573000000000000000e+03
1.559000000000000000e+03
1.552000000000000000e+03
1.548000000000000000e+03
1.552000000000000000e+03
1.558000000000000000e+03
1.575000000000000000e+03
1.598000000000000000e+03
1.623000000000000000e+03
1.663000000000000000e+03
1.703000000000000000e+03
1.748000000000000000e+03
1.803000000000000000e+03
1.850000000000000000e+03
1.904000000000000000e+03
1.957000000000000000e+03
2.006000000000000000e+03
2.064000000000000000e+03
2.114000000000000000e+03
2.161000000000000000e+03
2.209000000000000000e+03
2.249000000000000000e+03
2.289000000000000000e+03
2.332000000000000000e+03
2.368000000000000000e+03
2.407000000000000000e+03
2.438000000000000000e+03
2.475000000000000000e+03
2.507000000000000000e+03
2.535000000000000000e+03
2.559000000000000000e+03
2.585000000000000000e+03
2.592000000000000000e+03
2.592000000000000000e+03
2.581000000000000000e+03
2.555000000000000000e+03
2.518000000000000000e+03
2.478000000000000000e+03
2.421000000000000000e+03
2.357000000000000000e+03
2.289000000000000000e+03
2.224000000000000000e+03
2.151000000000000000e+03
2.079000000000000000e+03
2.003000000000000000e+03
1.941000000000000000e+03
1.886000000000000000e+03
1.837000000000000000e+03
1.793000000000000000e+03
1.754000000000000000e+03
1.725000000000000000e+03
1.696000000000000000e+03
1.671000000000000000e+03
1.649000000000000000e+03
1.623000000000000000e+03
1.604000000000000000e+03
1.581000000000000000e+03
1.554000000000000000e+03
1.526000000000000000e+03
1.504000000000000000e+03
1.488000000000000000e+03
1.473000000000000000e+03
1.466000000000000000e+03
1.463000000000000000e+03
1.465000000000000000e+03
1.472000000000000000e+03
1.487000000000000000e+03
1.505000000000000000e+03
1.520000000000000000e+03
1.549000000000000000e+03
1.569000000000000000e+03
1.587000000000000000e+03
1.600000000000000000e+03
1.616000000000000000e+03
1.625000000000000000e+03
1.630000000000000000e+03
1.632000000000000000e+03
1.628000000000000000e+03
1.622000000000000000e+03
1.616000000000000000e+03
1.610000000000000000e+03
1.600000000000000000e+03
1.597000000000000000e+03
1.589000000000000000e+03
1.586000000000000000e+03
1.584000000000000000e+03
1.584000000000000000e+03
1.584000000000000000e+03
1.585000000000000000e+03
1.589000000000000000e+03
1.594000000000000000e+03
1.596000000000000000e+03
1.601000000000000000e+03
1.606000000000000000e+03
1.609000000000000000e+03
1.616000000000000000e+03
1.617000000000000000e+03
1.618000000000000000e+03
1.618000000000000000e+03
1.617000000000000000e+03
1.618000000000000000e+03
1.617000000000000000e+03
1.616000000000000000e+03
1.614000000000000000e+03
1.609000000000000000e+03
1.607000000000000000e+03
1.606000000000000000e+03
1.602000000000000000e+03
1.602000000000000000e+03
1.601000000000000000e+03
1.603000000000000000e+03
1.601000000000000000e+03
1.604000000000000000e+03
1.607000000000000000e+03
1.612000000000000000e+03
1.614000000000000000e+03
1.616000000000000000e+03
1.616000000000000000e+03
1.620000000000000000e+03
1.626000000000000000e+03
1.621000000000000000e+03
1.623000000000000000e+03
1.625000000000000000e+03
1.622000000000000000e+03
1.626000000000000000e+03
1.623000000000000000e+03
1.621000000000000000e+03
1.619000000000000000e+03
1.617000000000000000e+03
1.616000000000000000e+03
1.621000000000000000e+03
1.616000000000000000e+03
1.619000000000000000e+03
1.618000000000000000e+03
1.618000000000000000e+03
1.621000000000000000e+03
1.626000000000000000e+03
1.627000000000000000e+03
1.631000000000000000e+03
1.633000000000000000e+03
1.634000000000000000e+03
1.638000000000000000e+03
1.641000000000000000e+03
1.642000000000000000e+03
1.642000000000000000e+03
1.645000000000000000e+03
1.646000000000000000e+03
1.647000000000000000e+03
1.647000000000000000e+03
1.646000000000000000e+03
1.647000000000000000e+03
1.648000000000000000e+03
1.650000000000000000e+03
1.651000000000000000e+03
1.650000000000000000e+03
1.651000000000000000e+03
1.650000000000000000e+03
1.650000000000000000e+03
1.657000000000000000e+03
1.653000000000000000e+03
1.659000000000000000e+03
1.658000000000000000e+03
1.657000000000000000e+03
1.659000000000000000e+03
1.659000000000000000e+03
1.661000000000000000e+03
1.664000000000000000e+03
1.664000000000000000e+03
1.664000000000000000e+03
1.666000000000000000e+03
1.669000000000000000e+03
1.670000000000000000e+03
1.672000000000000000e+03
1.671000000000000000e+03
1.677000000000000000e+03
1.679000000000000000e+03
1.680000000000000000e+03
1.680000000000000000e+03
1.681000000000000000e+03
1.680000000000000000e+03
1.682000000000000000e+03
1.682000000000000000e+03
1.683000000000000000e+03
1.685000000000000000e+03
1.689000000000000000e+03
1.691000000000000000e+03
1.692000000000000000e+03
1.693000000000000000e+03
1.697000000000000000e+03
1.699000000000000000e+03
1.705000000000000000e+03
1.705000000000000000e+03
1.709000000000000000e+03
1.709000000000000000e+03
1.707000000000000000e+03
1.711000000000000000e+03
1.712000000000000000e+03
1.712000000000000000e+03
1.712000000000000000e+03
1.714000000000000000e+03
1.715000000000000000e+03
1.719000000000000000e+03
1.719000000000000000e+03
1.719000000000000000e+03
1.721000000000000000e+03
1.723000000000000000e+03
1.726000000000000000e+03
1.728000000000000000e+03
1.730000000000000000e+03
1.730000000000000000e+03
1.733000000000000000e+03
1.736000000000000000e+03
1.739000000000000000e+03
1.742000000000000000e+03
1.744000000000000000e+03
1.745000000000000000e+03
1.746000000000000000e+03
1.749000000000000000e+03
1.750000000000000000e+03
1.751000000000000000e+03
1.756000000000000000e+03
1.755000000000000000e+03
1.761000000000000000e+03
1.762000000000000000e+03
1.770000000000000000e+03
1.772000000000000000e+03
1.776000000000000000e+03
1.776000000000000000e+03
1.780000000000000000e+03
1.786000000000000000e+03
1.790000000000000000e+03
1.794000000000000000e+03
1.794000000000000000e+03
1.799000000000000000e+03
1.803000000000000000e+03
1.805000000000000000e+03
1.808000000000000000e+03
1.811000000000000000e+03
1.814000000000000000e+03
1.818000000000000000e+03
1.821000000000000000e+03
1.823000000000000000e+03
1.823000000000000000e+03
1.829000000000000000e+03
1.829000000000000000e+03
1.827000000000000000e+03
1.824000000000000000e+03
1.819000000000000000e+03
1.819000000000000000e+03
1.813000000000000000e+03
1.810000000000000000e+03
1.808000000000000000e+03
1.805000000000000000e+03
1.805000000000000000e+03
1.800000000000000000e+03
1.799000000000000000e+03
1.793000000000000000e+03
1.792000000000000000e+03
1.792000000000000000e+03
1.792000000000000000e+03
1.791000000000000000e+03
1.792000000000000000e+03
1.792000000000000000e+03
1.794000000000000000e+03
1.792000000000000000e+03
1.795000000000000000e+03
1.794000000000000000e+03
1.795000000000000000e+03
1.792000000000000000e+03
1.794000000000000000e+03
1.790000000000000000e+03
1.787000000000000000e+03
1.782000000000000000e+03
1.776000000000000000e+03
1.771000000000000000e+03
1.760000000000000000e+03
1.748000000000000000e+03
1.741000000000000000e+03
1.728000000000000000e+03
1.718000000000000000e+03
1.711000000000000000e+03
1.696000000000000000e+03
1.682000000000000000e+03
1.675000000000000000e+03
1.664000000000000000e+03
1.652000000000000000e+03
1.647000000000000000e+03
1.636000000000000000e+03
1.631000000000000000e+03
1.625000000000000000e+03
1.621000000000000000e+03
1.619000000000000000e+03
1.616000000000000000e+03
1.616000000000000000e+03
1.617000000000000000e+03
1.614000000000000000e+03
1.616000000000000000e+03
1.614000000000000000e+03
1.614000000000000000e+03
1.614000000000000000e+03
1.614000000000000000e+03
1.611000000000000000e+03
1.609000000000000000e+03
1.608000000000000000e+03
1.606000000000000000e+03
1.607000000000000000e+03
1.606000000000000000e+03
1.606000000000000000e+03
1.607000000000000000e+03
1.609000000000000000e+03
1.605000000000000000e+03
1.607000000000000000e+03
1.607000000000000000e+03
1.606000000000000000e+03
1.611000000000000000e+03
1.613000000000000000e+03
1.611000000000000000e+03
1.613000000000000000e+03
1.612000000000000000e+03
1.612000000000000000e+03
1.611000000000000000e+03
1.611000000000000000e+03
1.610000000000000000e+03
1.607000000000000000e+03
1.611000000000000000e+03
1.611000000000000000e+03
1.613000000000000000e+03
1.607000000000000000e+03
1.614000000000000000e+03
1.613000000000000000e+03
1.615000000000000000e+03
1.613000000000000000e+03
1.616000000000000000e+03
1.616000000000000000e+03
1.616000000000000000e+03
1.616000000000000000e+03
1.616000000000000000e+03
1.616000000000000000e+03
1.616000000000000000e+03
1.616000000000000000e+03
1.619000000000000000e+03
1.616000000000000000e+03
1.617000000000000000e+03
1.616000000000000000e+03
1.617000000000000000e+03
1.616000000000000000e+03
1.616000000000000000e+03
1.617000000000000000e+03
1.618000000000000000e+03
1.617000000000000000e+03
1.616000000000000000e+03
1.617000000000000000e+03
1.618000000000000000e+03
1.616000000000000000e+03
1.617000000000000000e+03
1.617000000000000000e+03
1.616000000000000000e+03
1.616000000000000000e+03
1.616000000000000000e+03
1.614000000000000000e+03
1.615000000000000000e+03
1.615000000000000000e+03
1.616000000000000000e+03
1.616000000000000000e+03
1.617000000000000000e+03
1.619000000000000000e+03
1.621000000000000000e+03
1.621000000000000000e+03
1.625000000000000000e+03
1.623000000000000000e+03
1.625000000000000000e+03
1.625000000000000000e+03
1.626000000000000000e+03
1.626000000000000000e+03
1.623000000000000000e+03
1.623000000000000000e+03
1.621000000000000000e+03
1.621000000000000000e+03
1.622000000000000000e+03
1.619000000000000000e+03
1.625000000000000000e+03
1.623000000000000000e+03
1.619000000000000000e+03
1.623000000000000000e+03
1.620000000000000000e+03
1.621000000000000000e+03
1.618000000000000000e+03
1.617000000000000000e+03
1.616000000000000000e+03
1.617000000000000000e+03
1.622000000000000000e+03
1.619000000000000000e+03
1.621000000000000000e+03
1.622000000000000000e+03
1.623000000000000000e+03
1.629000000000000000e+03
1.629000000000000000e+03
1.628000000000000000e+03
1.629000000000000000e+03
1.631000000000000000e+03
1.630000000000000000e+03
1.630000000000000000e+03
1.628000000000000000e+03
1.624000000000000000e+03
1.626000000000000000e+03
1.623000000000000000e+03
1.619000000000000000e+03
1.616000000000000000e+03
1.618000000000000000e+03
1.620000000000000000e+03
1.622000000000000000e+03
1.622000000000000000e+03
1.621000000000000000e+03
1.624000000000000000e+03
1.627000000000000000e+03
1.630000000000000000e+03
1.633000000000000000e+03
1.634000000000000000e+03
1.635000000000000000e+03
1.637000000000000000e+03
1.637000000000000000e+03
1.638000000000000000e+03
1.638000000000000000e+03
1.638000000000000000e+03
1.635000000000000000e+03
1.637000000000000000e+03
1.634000000000000000e+03
1.634000000000000000e+03
1.634000000000000000e+03
1.635000000000000000e+03
1.636000000000000000e+03
1.633000000000000000e+03
1.635000000000000000e+03
1.639000000000000000e+03
1.637000000000000000e+03
1.643000000000000000e+03
1.641000000000000000e+03
1.641000000000000000e+03
1.642000000000000000e+03
1.643000000000000000e+03
1.643000000000000000e+03
1.645000000000000000e+03
1.639000000000000000e+03
1.642000000000000000e+03
1.639000000000000000e+03
1.643000000000000000e+03
1.642000000000000000e+03
1.639000000000000000e+03
1.641000000000000000e+03
1.637000000000000000e+03
1.638000000000000000e+03
1.634000000000000000e+03
1.637000000000000000e+03
1.635000000000000000e+03
1.633000000000000000e+03
1.637000000000000000e+03
1.635000000000000000e+03
1.635000000000000000e+03
1.639000000000000000e+03
1.638000000000000000e+03
1.642000000000000000e+03
1.644000000000000000e+03
1.647000000000000000e+03
1.648000000000000000e+03
1.648000000000000000e+03
1.648000000000000000e+03
1.648000000000000000e+03
1.648000000000000000e+03
1.648000000000000000e+03
1.649000000000000000e+03
1.650000000000000000e+03
1.648000000000000000e+03
1.648000000000000000e+03
1.648000000000000000e+03
1.648000000000000000e+03
1.648000000000000000e+03
1.648000000000000000e+03
1.647000000000000000e+03
1.646000000000000000e+03
1.648000000000000000e+03
1.648000000000000000e+03
1.647000000000000000e+03
1.645000000000000000e+03
1.644000000000000000e+03
1.645000000000000000e+03
1.643000000000000000e+03
1.644000000000000000e+03
1.642000000000000000e+03
1.643000000000000000e+03
1.642000000000000000e+03
1.645000000000000000e+03
1.643000000000000000e+03
1.647000000000000000e+03
1.649000000000000000e+03
1.648000000000000000e+03
1.651000000000000000e+03
1.649000000000000000e+03
1.651000000000000000e+03
1.649000000000000000e+03
1.649000000000000000e+03
1.649000000000000000e+03
1.648000000000000000e+03
1.645000000000000000e+03
1.645000000000000000e+03
1.647000000000000000e+03
1.644000000000000000e+03
1.648000000000000000e+03
1.646000000000000000e+03
1.643000000000000000e+03
1.648000000000000000e+03
1.648000000000000000e+03
1.648000000000000000e+03
1.649000000000000000e+03
1.652000000000000000e+03
1.655000000000000000e+03
1.653000000000000000e+03
1.653000000000000000e+03
1.654000000000000000e+03
1.657000000000000000e+03
1.662000000000000000e+03
1.661000000000000000e+03
1.662000000000000000e+03
1.667000000000000000e+03
1.669000000000000000e+03
1.677000000000000000e+03
1.680000000000000000e+03
1.686000000000000000e+03
1.690000000000000000e+03
1.698000000000000000e+03
1.706000000000000000e+03
1.712000000000000000e+03
1.714000000000000000e+03
1.721000000000000000e+03
1.728000000000000000e+03
1.728000000000000000e+03
1.734000000000000000e+03
1.738000000000000000e+03
1.739000000000000000e+03
1.744000000000000000e+03
1.744000000000000000e+03
1.744000000000000000e+03
1.747000000000000000e+03
1.747000000000000000e+03
1.750000000000000000e+03
1.751000000000000000e+03
1.751000000000000000e+03
1.753000000000000000e+03
1.755000000000000000e+03
1.756000000000000000e+03
1.758000000000000000e+03
1.759000000000000000e+03
1.755000000000000000e+03
1.760000000000000000e+03
1.757000000000000000e+03
1.757000000000000000e+03
1.758000000000000000e+03
1.758000000000000000e+03
1.758000000000000000e+03
1.754000000000000000e+03
1.751000000000000000e+03
1.752000000000000000e+03
1.751000000000000000e+03
1.745000000000000000e+03
1.745000000000000000e+03
1.742000000000000000e+03
1.741000000000000000e+03
1.735000000000000000e+03
1.733000000000000000e+03
1.728000000000000000e+03
1.728000000000000000e+03
1.725000000000000000e+03
1.722000000000000000e+03
1.722000000000000000e+03
1.715000000000000000e+03
1.714000000000000000e+03
1.712000000000000000e+03
1.712000000000000000e+03
1.706000000000000000e+03
1.703000000000000000e+03
1.699000000000000000e+03
1.694000000000000000e+03
1.686000000000000000e+03
1.681000000000000000e+03
1.673000000000000000e+03
1.666000000000000000e+03
1.663000000000000000e+03
1.655000000000000000e+03
1.648000000000000000e+03
1.646000000000000000e+03
1.635000000000000000e+03
1.631000000000000000e+03
1.628000000000000000e+03
1.628000000000000000e+03
1.626000000000000000e+03
1.626000000000000000e+03
1.628000000000000000e+03
1.627000000000000000e+03
1.631000000000000000e+03
1.635000000000000000e+03
1.634000000000000000e+03
1.641000000000000000e+03
1.638000000000000000e+03
1.642000000000000000e+03
1.639000000000000000e+03
1.642000000000000000e+03
1.646000000000000000e+03
1.645000000000000000e+03
1.645000000000000000e+03
1.646000000000000000e+03
1.647000000000000000e+03
1.647000000000000000e+03
1.648000000000000000e+03
1.648000000000000000e+03
1.652000000000000000e+03
1.649000000000000000e+03
1.654000000000000000e+03
1.651000000000000000e+03
1.650000000000000000e+03
1.651000000000000000e+03
1.649000000000000000e+03
1.648000000000000000e+03
1.648000000000000000e+03
1.647000000000000000e+03
1.643000000000000000e+03
1.641000000000000000e+03
1.637000000000000000e+03
1.637000000000000000e+03
1.637000000000000000e+03
1.635000000000000000e+03
1.635000000000000000e+03
1.641000000000000000e+03
1.639000000000000000e+03
1.645000000000000000e+03
1.645000000000000000e+03
1.648000000000000000e+03
1.648000000000000000e+03
1.650000000000000000e+03
1.653000000000000000e+03
1.655000000000000000e+03
1.655000000000000000e+03
1.660000000000000000e+03
1.659000000000000000e+03
1.663000000000000000e+03
1.663000000000000000e+03
1.662000000000000000e+03
1.659000000000000000e+03
1.659000000000000000e+03
1.655000000000000000e+03
1.659000000000000000e+03
1.657000000000000000e+03
1.655000000000000000e+03
1.654000000000000000e+03
1.651000000000000000e+03
1.649000000000000000e+03
1.648000000000000000e+03
1.648000000000000000e+03
1.648000000000000000e+03
1.645000000000000000e+03
1.636000000000000000e+03
1.634000000000000000e+03
1.625000000000000000e+03
1.617000000000000000e+03
1.614000000000000000e+03
1.603000000000000000e+03
1.591000000000000000e+03
1.584000000000000000e+03
1.572000000000000000e+03
1.560000000000000000e+03
1.552000000000000000e+03
1.549000000000000000e+03
1.551000000000000000e+03
1.552000000000000000e+03
1.563000000000000000e+03
1.584000000000000000e+03
1.609000000000000000e+03
1.639000000000000000e+03
1.678000000000000000e+03
1.716000000000000000e+03
1.767000000000000000e+03
1.815000000000000000e+03
1.870000000000000000e+03
1.922000000000000000e+03
1.974000000000000000e+03
2.029000000000000000e+03
2.085000000000000000e+03
2.131000000000000000e+03
2.179000000000000000e+03
2.224000000000000000e+03
2.266000000000000000e+03
2.305000000000000000e+03
2.349000000000000000e+03
2.383000000000000000e+03
2.419000000000000000e+03
2.455000000000000000e+03
2.486000000000000000e+03
2.515000000000000000e+03
2.545000000000000000e+03
2.573000000000000000e+03
2.590000000000000000e+03
2.592000000000000000e+03
2.589000000000000000e+03
2.576000000000000000e+03
2.544000000000000000e+03
2.503000000000000000e+03
2.454000000000000000e+03
2.398000000000000000e+03
2.332000000000000000e+03
2.263000000000000000e+03
2.192000000000000000e+03
2.119000000000000000e+03
2.049000000000000000e+03
1.979000000000000000e+03
1.918000000000000000e+03
1.862000000000000000e+03
1.814000000000000000e+03
1.773000000000000000e+03
1.739000000000000000e+03
1.708000000000000000e+03
1.680000000000000000e+03
1.657000000000000000e+03
1.633000000000000000e+03
1.611000000000000000e+03
1.585000000000000000e+03
1.563000000000000000e+03
1.535000000000000000e+03
1.510000000000000000e+03
1.492000000000000000e+03
1.479000000000000000e+03
1.467000000000000000e+03
1.459000000000000000e+03
1.461000000000000000e+03
1.468000000000000000e+03
1.475000000000000000e+03
1.491000000000000000e+03
1.510000000000000000e+03
1.534000000000000000e+03
1.554000000000000000e+03
1.580000000000000000e+03
1.599000000000000000e+03
1.614000000000000000e+03
1.621000000000000000e+03
1.633000000000000000e+03
1.636000000000000000e+03
1.638000000000000000e+03
1.634000000000000000e+03
1.627000000000000000e+03
1.618000000000000000e+03
1.614000000000000000e+03
1.603000000000000000e+03
1.597000000000000000e+03
1.586000000000000000e+03
1.584000000000000000e+03
1.579000000000000000e+03
1.575000000000000000e+03
1.575000000000000000e+03
1.575000000000000000e+03
1.583000000000000000e+03
1.581000000000000000e+03
1.584000000000000000e+03
1.587000000000000000e+03
1.591000000000000000e+03
1.597000000000000000e+03
1.600000000000000000e+03
1.601000000000000000e+03
1.609000000000000000e+03
1.605000000000000000e+03
1.608000000000000000e+03
1.611000000000000000e+03
1.615000000000000000e+03
1.614000000000000000e+03
1.616000000000000000e+03
1.614000000000000000e+03
1.616000000000000000e+03
1.616000000000000000e+03
1.616000000000000000e+03
1.614000000000000000e+03
1.615000000000000000e+03
1.616000000000000000e+03
1.616000000000000000e+03
1.616000000000000000e+03
1.614000000000000000e+03
1.616000000000000000e+03
1.615000000000000000e+03
1.616000000000000000e+03
1.614000000000000000e+03
1.615000000000000000e+03
1.616000000000000000e+03
1.616000000000000000e+03
1.616000000000000000e+03
1.616000000000000000e+03
1.616000000000000000e+03
1.616000000000000000e+03
1.617000000000000000e+03
1.618000000000000000e+03
1.622000000000000000e+03
1.621000000000000000e+03
1.621000000000000000e+03
1.619000000000000000e+03
1.625000000000000000e+03
1.626000000000000000e+03
1.628000000000000000e+03
1.632000000000000000e+03
1.629000000000000000e+03
1.633000000000000000e+03
1.636000000000000000e+03
1.635000000000000000e+03
1.635000000000000000e+03
1.634000000000000000e+03
1.635000000000000000e+03
1.633000000000000000e+03
1.635000000000000000e+03
1.634000000000000000e+03
1.635000000000000000e+03
1.637000000000000000e+03
1.639000000000000000e+03
1.639000000000000000e+03
1.645000000000000000e+03
1.648000000000000000e+03
1.648000000000000000e+03
1.650000000000000000e+03
1.651000000000000000e+03
1.653000000000000000e+03
1.657000000000000000e+03
1.659000000000000000e+03
1.661000000000000000e+03
1.661000000000000000e+03
1.664000000000000000e+03
1.659000000000000000e+03
1.662000000000000000e+03
1.659000000000000000e+03
1.662000000000000000e+03
1.662000000000000000e+03
1.662000000000000000e+03
1.663000000000000000e+03
1.661000000000000000e+03
1.662000000000000000e+03
1.664000000000000000e+03
1.664000000000000000e+03
1.665000000000000000e+03
1.666000000000000000e+03
1.668000000000000000e+03
1.673000000000000000e+03
1.674000000000000000e+03
1.677000000000000000e+03
1.679000000000000000e+03
1.681000000000000000e+03
1.680000000000000000e+03
1.686000000000000000e+03
1.693000000000000000e+03
1.691000000000000000e+03
1.693000000000000000e+03
1.695000000000000000e+03
1.698000000000000000e+03
1.699000000000000000e+03
1.697000000000000000e+03
1.697000000000000000e+03
1.698000000000000000e+03
1.697000000000000000e+03
1.701000000000000000e+03
1.697000000000000000e+03
1.698000000000000000e+03
1.699000000000000000e+03
1.702000000000000000e+03
1.707000000000000000e+03
1.709000000000000000e+03
1.712000000000000000e+03
1.714000000000000000e+03
1.715000000000000000e+03
1.718000000000000000e+03
1.719000000000000000e+03
1.723000000000000000e+03
1.727000000000000000e+03
1.728000000000000000e+03
1.729000000000000000e+03
1.730000000000000000e+03
1.729000000000000000e+03
1.730000000000000000e+03
1.734000000000000000e+03
1.730000000000000000e+03
1.731000000000000000e+03
1.732000000000000000e+03
1.733000000000000000e+03
1.735000000000000000e+03
1.739000000000000000e+03
1.744000000000000000e+03
1.744000000000000000e+03
1.752000000000000000e+03
1.758000000000000000e+03
1.764000000000000000e+03
1.769000000000000000e+03
1.776000000000000000e+03
1.776000000000000000e+03
1.781000000000000000e+03
1.786000000000000000e+03
1.787000000000000000e+03
1.792000000000000000e+03
1.792000000000000000e+03
1.792000000000000000e+03
1.794000000000000000e+03
1.795000000000000000e+03
1.792000000000000000e+03
1.799000000000000000e+03
1.799000000000000000e+03
1.804000000000000000e+03
1.807000000000000000e+03
1.808000000000000000e+03
1.810000000000000000e+03
1.813000000000000000e+03
1.817000000000000000e+03
1.824000000000000000e+03
1.824000000000000000e+03
1.827000000000000000e+03
1.827000000000000000e+03
1.827000000000000000e+03
1.826000000000000000e+03
1.826000000000000000e+03
1.823000000000000000e+03
1.821000000000000000e+03
1.816000000000000000e+03
1.814000000000000000e+03
1.808000000000000000e+03
1.808000000000000000e+03
1.803000000000000000e+03
1.798000000000000000e+03
1.796000000000000000e+03
1.792000000000000000e+03
1.792000000000000000e+03
1.791000000000000000e+03
1.791000000000000000e+03
1.792000000000000000e+03
1.787000000000000000e+03
1.792000000000000000e+03
1.791000000000000000e+03
1.791000000000000000e+03
1.787000000000000000e+03
1.786000000000000000e+03
1.782000000000000000e+03
1.779000000000000000e+03
1.776000000000000000e+03
1.771000000000000000e+03
1.759000000000000000e+03
1.753000000000000000e+03
1.744000000000000000e+03
1.740000000000000000e+03
1.729000000000000000e+03
1.717000000000000000e+03
1.712000000000000000e+03
1.702000000000000000e+03
1.693000000000000000e+03
1.680000000000000000e+03
1.675000000000000000e+03
1.665000000000000000e+03
1.658000000000000000e+03
1.650000000000000000e+03
1.648000000000000000e+03
1.638000000000000000e+03
1.633000000000000000e+03
1.629000000000000000e+03
1.625000000000000000e+03
1.616000000000000000e+03
1.614000000000000000e+03
1.610000000000000000e+03
1.607000000000000000e+03
1.603000000000000000e+03
1.600000000000000000e+03
1.599000000000000000e+03
1.599000000000000000e+03
1.595000000000000000e+03
1.594000000000000000e+03
1.598000000000000000e+03
1.600000000000000000e+03
1.599000000000000000e+03
1.601000000000000000e+03
1.602000000000000000e+03
1.605000000000000000e+03
1.607000000000000000e+03
1.612000000000000000e+03
1.613000000000000000e+03
1.613000000000000000e+03
1.614000000000000000e+03
1.612000000000000000e+03
1.614000000000000000e+03
1.615000000000000000e+03
1.613000000000000000e+03
1.614000000000000000e+03
1.611000000000000000e+03
1.610000000000000000e+03
1.613000000000000000e+03
1.610000000000000000e+03
1.611000000000000000e+03
1.611000000000000000e+03
1.610000000000000000e+03
1.611000000000000000e+03
1.613000000000000000e+03
1.611000000000000000e+03
1.610000000000000000e+03
1.609000000000000000e+03
1.610000000000000000e+03
1.609000000000000000e+03
1.607000000000000000e+03
1.609000000000000000e+03
1.612000000000000000e+03
1.609000000000000000e+03
1.609000000000000000e+03
1.611000000000000000e+03
1.616000000000000000e+03
1.616000000000000000e+03
1.616000000000000000e+03
1.616000000000000000e+03
1.616000000000000000e+03
1.618000000000000000e+03
1.618000000000000000e+03
1.619000000000000000e+03
1.620000000000000000e+03
1.618000000000000000e+03
1.622000000000000000e+03
1.621000000000000000e+03
1.618000000000000000e+03
1.617000000000000000e+03
1.619000000000000000e+03
1.622000000000000000e+03
1.622000000000000000e+03
1.621000000000000000e+03
1.619000000000000000e+03
1.620000000000000000e+03
1.618000000000000000e+03
1.618000000000000000e+03
1.616000000000000000e+03
1.616000000000000000e+03
1.616000000000000000e+03
1.614000000000000000e+03
1.612000000000000000e+03
1.611000000000000000e+03
1.612000000000000000e+03
1.611000000000000000e+03
1.613000000000000000e+03
1.612000000000000000e+03
1.614000000000000000e+03
1.615000000000000000e+03
1.616000000000000000e+03
1.620000000000000000e+03
1.619000000000000000e+03
1.619000000000000000e+03
1.625000000000000000e+03
1.626000000000000000e+03
1.627000000000000000e+03
1.629000000000000000e+03
1.631000000000000000e+03
1.629000000000000000e+03
1.628000000000000000e+03
1.627000000000000000e+03
1.630000000000000000e+03
1.626000000000000000e+03
1.627000000000000000e+03
1.625000000000000000e+03
1.627000000000000000e+03
1.626000000000000000e+03
1.626000000000000000e+03
1.629000000000000000e+03
1.625000000000000000e+03
1.627000000000000000e+03
1.626000000000000000e+03
1.625000000000000000e+03
1.627000000000000000e+03
1.625000000000000000e+03
1.625000000000000000e+03
1.625000000000000000e+03
1.623000000000000000e+03
1.626000000000000000e+03
1.627000000000000000e+03
1.626000000000000000e+03
1.627000000000000000e+03
1.632000000000000000e+03
1.631000000000000000e+03
1.632000000000000000e+03
1.632000000000000000e+03
1.632000000000000000e+03
1.632000000000000000e+03
1.635000000000000000e+03
1.633000000000000000e+03
1.633000000000000000e+03
1.634000000000000000e+03
1.631000000000000000e+03
1.634000000000000000e+03
1.634000000000000000e+03
1.634000000000000000e+03
1.635000000000000000e+03
1.633000000000000000e+03
1.633000000000000000e+03
1.632000000000000000e+03
1.637000000000000000e+03
1.633000000000000000e+03
1.634000000000000000e+03
1.632000000000000000e+03
1.629000000000000000e+03
1.630000000000000000e+03
1.631000000000000000e+03
1.631000000000000000e+03
1.630000000000000000e+03
1.633000000000000000e+03
1.633000000000000000e+03
1.636000000000000000e+03
1.639000000000000000e+03
1.639000000000000000e+03
1.643000000000000000e+03
1.642000000000000000e+03
1.646000000000000000e+03
1.645000000000000000e+03
1.647000000000000000e+03
1.645000000000000000e+03
1.645000000000000000e+03
1.642000000000000000e+03
1.645000000000000000e+03
1.645000000000000000e+03
1.644000000000000000e+03
1.641000000000000000e+03
1.642000000000000000e+03
1.639000000000000000e+03
1.638000000000000000e+03
1.637000000000000000e+03
1.637000000000000000e+03
1.638000000000000000e+03
1.637000000000000000e+03
1.637000000000000000e+03
1.635000000000000000e+03
1.640000000000000000e+03
1.638000000000000000e+03
1.643000000000000000e+03
1.641000000000000000e+03
1.639000000000000000e+03
1.642000000000000000e+03
1.645000000000000000e+03
1.643000000000000000e+03
1.645000000000000000e+03
1.645000000000000000e+03
1.642000000000000000e+03
1.642000000000000000e+03
1.641000000000000000e+03
1.639000000000000000e+03
1.642000000000000000e+03
1.642000000000000000e+03
1.638000000000000000e+03
1.639000000000000000e+03
1.636000000000000000e+03
1.635000000000000000e+03
1.636000000000000000e+03
1.635000000000000000e+03
1.638000000000000000e+03
1.636000000000000000e+03
1.635000000000000000e+03
1.641000000000000000e+03
1.635000000000000000e+03
1.639000000000000000e+03
1.638000000000000000e+03
1.643000000000000000e+03
1.645000000000000000e+03
1.647000000000000000e+03
1.648000000000000000e+03
1.650000000000000000e+03
1.651000000000000000e+03
1.650000000000000000e+03
1.657000000000000000e+03
1.650000000000000000e+03
1.652000000000000000e+03
1.650000000000000000e+03
1.648000000000000000e+03
1.648000000000000000e+03
1.646000000000000000e+03
1.647000000000000000e+03
1.643000000000000000e+03
1.644000000000000000e+03
1.641000000000000000e+03
1.643000000000000000e+03
1.639000000000000000e+03
1.642000000000000000e+03
1.644000000000000000e+03
1.648000000000000000e+03
1.648000000000000000e+03
1.649000000000000000e+03
1.653000000000000000e+03
1.653000000000000000e+03
1.656000000000000000e+03
1.656000000000000000e+03
1.658000000000000000e+03
1.659000000000000000e+03
1.661000000000000000e+03
1.661000000000000000e+03
1.664000000000000000e+03
1.664000000000000000e+03
1.666000000000000000e+03
1.673000000000000000e+03
1.676000000000000000e+03
1.680000000000000000e+03
1.689000000000000000e+03
1.695000000000000000e+03
1.703000000000000000e+03
1.710000000000000000e+03
1.712000000000000000e+03
1.719000000000000000e+03
1.725000000000000000e+03
1.730000000000000000e+03
1.733000000000000000e+03
1.738000000000000000e+03
1.742000000000000000e+03
1.744000000000000000e+03
1.748000000000000000e+03
1.746000000000000000e+03
1.748000000000000000e+03
1.747000000000000000e+03
1.747000000000000000e+03
1.754000000000000000e+03
1.754000000000000000e+03
1.754000000000000000e+03
1.755000000000000000e+03
1.753000000000000000e+03
1.757000000000000000e+03
1.758000000000000000e+03
1.760000000000000000e+03
1.759000000000000000e+03
1.763000000000000000e+03
1.763000000000000000e+03
1.763000000000000000e+03
1.761000000000000000e+03
1.762000000000000000e+03
1.759000000000000000e+03
1.759000000000000000e+03
1.756000000000000000e+03
1.751000000000000000e+03
1.747000000000000000e+03
1.746000000000000000e+03
1.744000000000000000e+03
1.742000000000000000e+03
1.735000000000000000e+03
1.730000000000000000e+03
1.727000000000000000e+03
1.722000000000000000e+03
1.722000000000000000e+03
1.718000000000000000e+03
1.716000000000000000e+03
1.717000000000000000e+03
1.715000000000000000e+03
1.712000000000000000e+03
1.712000000000000000e+03
1.711000000000000000e+03
1.706000000000000000e+03
1.702000000000000000e+03
1.697000000000000000e+03
1.690000000000000000e+03
1.682000000000000000e+03
1.678000000000000000e+03
1.671000000000000000e+03
1.664000000000000000e+03
1.655000000000000000e+03
1.648000000000000000e+03
1.646000000000000000e+03
1.643000000000000000e+03
1.637000000000000000e+03
1.636000000000000000e+03
1.635000000000000000e+03
1.633000000000000000e+03
1.638000000000000000e+03
1.641000000000000000e+03
1.645000000000000000e+03
1.646000000000000000e+03
1.647000000000000000e+03
1.649000000000000000e+03
1.649000000000000000e+03
1.652000000000000000e+03
1.653000000000000000e+03
1.654000000000000000e+03
1.655000000000000000e+03
1.651000000000000000e+03
1.651000000000000000e+03
1.651000000000000000e+03
1.651000000000000000e+03
1.648000000000000000e+03
1.649000000000000000e+03
1.648000000000000000e+03
1.647000000000000000e+03
1.646000000000000000e+03
1.647000000000000000e+03
1.648000000000000000e+03
1.646000000000000000e+03
1.645000000000000000e+03
1.643000000000000000e+03
1.646000000000000000e+03
1.643000000000000000e+03
1.647000000000000000e+03
1.647000000000000000e+03
1.646000000000000000e+03
1.646000000000000000e+03
1.645000000000000000e+03
1.644000000000000000e+03
1.643000000000000000e+03
1.642000000000000000e+03
1.643000000000000000e+03
1.645000000000000000e+03
1.639000000000000000e+03
1.643000000000000000e+03
1.639000000000000000e+03
1.645000000000000000e+03
1.647000000000000000e+03
1.646000000000000000e+03
1.648000000000000000e+03
1.648000000000000000e+03
1.655000000000000000e+03
1.653000000000000000e+03
1.655000000000000000e+03
1.659000000000000000e+03
1.659000000000000000e+03
1.661000000000000000e+03
1.662000000000000000e+03
1.661000000000000000e+03
1.661000000000000000e+03
1.663000000000000000e+03
1.660000000000000000e+03
1.659000000000000000e+03
1.657000000000000000e+03
1.658000000000000000e+03
1.655000000000000000e+03
1.653000000000000000e+03
1.652000000000000000e+03
1.649000000000000000e+03
1.648000000000000000e+03
1.648000000000000000e+03
1.645000000000000000e+03
1.637000000000000000e+03
1.627000000000000000e+03
1.619000000000000000e+03
1.611000000000000000e+03
1.600000000000000000e+03
1.588000000000000000e+03
1.579000000000000000e+03
1.563000000000000000e+03
1.552000000000000000e+03
1.550000000000000000e+03
1.545000000000000000e+03
1.548000000000000000e+03
1.552000000000000000e+03
1.567000000000000000e+03
1.589000000000000000e+03
1.616000000000000000e+03
1.652000000000000000e+03
1.692000000000000000e+03
1.739000000000000000e+03
1.791000000000000000e+03
1.840000000000000000e+03
1.891000000000000000e+03
1.947000000000000000e+03
1.998000000000000000e+03
2.059000000000000000e+03
2.105000000000000000e+03
2.151000000000000000e+03
2.195000000000000000e+03
2.240000000000000000e+03
2.284000000000000000e+03
2.320000000000000000e+03
2.359000000000000000e+03
2.394000000000000000e+03
2.434000000000000000e+03
2.468000000000000000e+03
2.497000000000000000e+03
2.528000000000000000e+03
2.557000000000000000e+03
2.577000000000000000e+03
2.592000000000000000e+03
2.593000000000000000e+03
2.585000000000000000e+03
2.567000000000000000e+03
2.531000000000000000e+03
2.487000000000000000e+03
2.433000000000000000e+03
2.374000000000000000e+03
2.304000000000000000e+03
2.231000000000000000e+03
2.161000000000000000e+03
2.091000000000000000e+03
2.016000000000000000e+03
1.953000000000000000e+03
1.891000000000000000e+03
1.845000000000000000e+03
1.794000000000000000e+03
1.760000000000000000e+03
1.728000000000000000e+03
1.700000000000000000e+03
1.678000000000000000e+03
1.648000000000000000e+03
1.621000000000000000e+03
1.600000000000000000e+03
1.577000000000000000e+03
1.552000000000000000e+03
1.521000000000000000e+03
1.502000000000000000e+03
1.488000000000000000e+03
1.473000000000000000e+03
1.466000000000000000e+03
1.463000000000000000e+03
1.463000000000000000e+03
1.472000000000000000e+03
1.487000000000000000e+03
1.501000000000000000e+03
1.520000000000000000e+03
1.542000000000000000e+03
1.567000000000000000e+03
1.584000000000000000e+03
1.603000000000000000e+03
1.616000000000000000e+03
1.629000000000000000e+03
1.635000000000000000e+03
1.639000000000000000e+03
1.641000000000000000e+03
1.635000000000000000e+03
1.632000000000000000e+03
1.623000000000000000e+03
1.616000000000000000e+03
1.612000000000000000e+03
1.602000000000000000e+03
1.599000000000000000e+03
1.597000000000000000e+03
1.591000000000000000e+03
1.593000000000000000e+03
1.593000000000000000e+03
1.593000000000000000e+03
1.596000000000000000e+03
1.600000000000000000e+03
1.603000000000000000e+03
1.604000000000000000e+03
1.611000000000000000e+03
1.614000000000000000e+03
1.616000000000000000e+03
1.616000000000000000e+03
1.617000000000000000e+03
1.618000000000000000e+03
1.616000000000000000e+03
1.616000000000000000e+03
1.616000000000000000e+03
1.616000000000000000e+03
1.616000000000000000e+03
1.616000000000000000e+03
1.615000000000000000e+03
1.616000000000000000e+03
1.614000000000000000e+03
1.613000000000000000e+03
1.614000000000000000e+03
1.615000000000000000e+03
1.616000000000000000e+03
1.616000000000000000e+03
1.617000000000000000e+03
1.616000000000000000e+03
1.614000000000000000e+03
1.618000000000000000e+03
1.616000000000000000e+03
1.617000000000000000e+03
1.616000000000000000e+03
1.616000000000000000e+03
1.616000000000000000e+03
1.616000000000000000e+03
1.614000000000000000e+03
1.616000000000000000e+03
1.616000000000000000e+03
1.616000000000000000e+03
1.618000000000000000e+03
1.618000000000000000e+03
1.623000000000000000e+03
1.627000000000000000e+03
1.630000000000000000e+03
1.627000000000000000e+03
1.631000000000000000e+03
1.633000000000000000e+03
1.631000000000000000e+03
1.632000000000000000e+03
1.631000000000000000e+03
1.627000000000000000e+03
1.630000000000000000e+03
1.631000000000000000e+03
1.632000000000000000e+03
1.629000000000000000e+03
1.633000000000000000e+03
1.632000000000000000e+03
1.635000000000000000e+03
1.640000000000000000e+03
1.643000000000000000e+03
1.646000000000000000e+03
1.648000000000000000e+03
1.649000000000000000e+03
1.650000000000000000e+03
1.654000000000000000e+03
1.653000000000000000e+03
1.651000000000000000e+03
1.651000000000000000e+03
1.649000000000000000e+03
1.651000000000000000e+03
1.651000000000000000e+03
1.654000000000000000e+03
1.655000000000000000e+03
1.656000000000000000e+03
1.657000000000000000e+03
1.659000000000000000e+03
1.663000000000000000e+03
1.665000000000000000e+03
1.668000000000000000e+03
1.670000000000000000e+03
1.673000000000000000e+03
1.677000000000000000e+03
1.677000000000000000e+03
1.681000000000000000e+03
1.680000000000000000e+03
1.680000000000000000e+03
1.680000000000000000e+03
1.679000000000000000e+03
1.678000000000000000e+03
1.679000000000000000e+03
1.677000000000000000e+03
1.677000000000000000e+03
1.678000000000000000e+03
1.680000000000000000e+03
1.680000000000000000e+03
1.682000000000000000e+03
1.685000000000000000e+03
1.687000000000000000e+03
1.694000000000000000e+03
1.696000000000000000e+03
1.699000000000000000e+03
1.703000000000000000e+03
1.709000000000000000e+03
1.711000000000000000e+03
1.712000000000000000e+03
1.712000000000000000e+03
1.712000000000000000e+03
1.712000000000000000e+03
1.712000000000000000e+03
1.712000000000000000e+03
1.712000000000000000e+03
1.712000000000000000e+03
1.713000000000000000e+03
1.717000000000000000e+03
1.718000000000000000e+03
1.721000000000000000e+03
1.724000000000000000e+03
1.723000000000000000e+03
1.728000000000000000e+03
1.730000000000000000e+03
1.728000000000000000e+03
1.733000000000000000e+03
1.732000000000000000e+03
1.733000000000000000e+03
1.737000000000000000e+03
1.737000000000000000e+03
1.739000000000000000e+03
1.742000000000000000e+03
1.744000000000000000e+03
1.746000000000000000e+03
1.751000000000000000e+03
1.754000000000000000e+03
1.759000000000000000e+03
1.765000000000000000e+03
1.770000000000000000e+03
1.773000000000000000e+03
1.774000000000000000e+03
1.776000000000000000e+03
1.781000000000000000e+03
1.782000000000000000e+03
1.786000000000000000e+03
1.788000000000000000e+03
1.792000000000000000e+03
1.797000000000000000e+03
1.804000000000000000e+03
1.803000000000000000e+03
1.808000000000000000e+03
1.808000000000000000e+03
1.813000000000000000e+03
1.811000000000000000e+03
1.818000000000000000e+03
1.819000000000000000e+03
1.822000000000000000e+03
1.823000000000000000e+03
1.825000000000000000e+03
1.821000000000000000e+03
1.823000000000000000e+03
1.823000000000000000e+03
1.820000000000000000e+03
1.815000000000000000e+03
1.815000000000000000e+03
1.813000000000000000e+03
1.813000000000000000e+03
1.810000000000000000e+03
1.808000000000000000e+03
1.807000000000000000e+03
1.807000000000000000e+03
1.805000000000000000e+03
1.808000000000000000e+03
1.803000000000000000e+03
1.802000000000000000e+03
1.798000000000000000e+03
1.799000000000000000e+03
1.796000000000000000e+03
1.792000000000000000e+03
1.786000000000000000e+03
1.783000000000000000e+03
1.781000000000000000e+03
1.779000000000000000e+03
1.776000000000000000e+03
1.773000000000000000e+03
1.769000000000000000e+03
1.764000000000000000e+03
1.759000000000000000e+03
1.751000000000000000e+03
1.746000000000000000e+03
1.742000000000000000e+03
1.729000000000000000e+03
1.723000000000000000e+03
1.712000000000000000e+03
1.706000000000000000e+03
1.698000000000000000e+03
1.689000000000000000e+03
1.681000000000000000e+03
1.671000000000000000e+03
1.664000000000000000e+03
1.658000000000000000e+03
1.651000000000000000e+03
1.648000000000000000e+03
1.641000000000000000e+03
1.634000000000000000e+03
1.629000000000000000e+03
1.626000000000000000e+03
1.626000000000000000e+03
1.617000000000000000e+03
1.616000000000000000e+03
1.616000000000000000e+03
1.611000000000000000e+03
1.615000000000000000e+03
1.611000000000000000e+03
1.612000000000000000e+03
1.609000000000000000e+03
1.607000000000000000e+03
1.611000000000000000e+03
1.607000000000000000e+03
1.611000000000000000e+03
1.609000000000000000e+03
1.610000000000000000e+03
1.610000000000000000e+03
1.607000000000000000e+03
1.611000000000000000e+03
1.610000000000000000e+03
1.610000000000000000e+03
1.611000000000000000e+03
1.609000000000000000e+03
1.606000000000000000e+03
1.609000000000000000e+03
1.607000000000000000e+03
1.610000000000000000e+03
1.606000000000000000e+03
1.605000000000000000e+03
1.609000000000000000e+03
1.609000000000000000e+03
1.610000000000000000e+03
1.612000000000000000e+03
1.612000000000000000e+03
1.614000000000000000e+03
1.613000000000000000e+03
1.616000000000000000e+03
1.616000000000000000e+03
1.616000000000000000e+03
1.615000000000000000e+03
1.616000000000000000e+03
1.616000000000000000e+03
1.616000000000000000e+03
1.615000000000000000e+03
1.616000000000000000e+03
1.615000000000000000e+03
1.614000000000000000e+03
1.613000000000000000e+03
1.609000000000000000e+03
1.611000000000000000e+03
1.612000000000000000e+03
1.615000000000000000e+03
1.615000000000000000e+03
1.611000000000000000e+03
1.616000000000000000e+03
1.615000000000000000e+03
1.617000000000000000e+03
1.616000000000000000e+03
1.617000000000000000e+03
1.616000000000000000e+03
1.618000000000000000e+03
1.616000000000000000e+03
1.618000000000000000e+03
1.617000000000000000e+03
1.615000000000000000e+03
1.614000000000000000e+03
1.613000000000000000e+03
1.610000000000000000e+03
1.609000000000000000e+03
1.609000000000000000e+03
1.610000000000000000e+03
1.615000000000000000e+03
1.615000000000000000e+03
1.616000000000000000e+03
1.616000000000000000e+03
1.618000000000000000e+03
1.625000000000000000e+03
1.625000000000000000e+03
1.625000000000000000e+03
1.630000000000000000e+03
1.630000000000000000e+03
1.631000000000000000e+03
1.630000000000000000e+03
1.632000000000000000e+03
1.630000000000000000e+03
1.629000000000000000e+03
1.630000000000000000e+03
1.627000000000000000e+03
1.628000000000000000e+03
1.626000000000000000e+03
1.626000000000000000e+03
1.623000000000000000e+03
1.626000000000000000e+03
1.627000000000000000e+03
1.626000000000000000e+03
1.621000000000000000e+03
1.626000000000000000e+03
1.627000000000000000e+03
1.623000000000000000e+03
1.625000000000000000e+03
1.625000000000000000e+03
1.629000000000000000e+03
1.627000000000000000e+03
1.627000000000000000e+03
1.628000000000000000e+03
1.628000000000000000e+03
1.634000000000000000e+03
1.629000000000000000e+03
1.631000000000000000e+03
1.630000000000000000e+03
1.630000000000000000e+03
1.632000000000000000e+03
1.629000000000000000e+03
1.627000000000000000e+03
1.625000000000000000e+03
1.627000000000000000e+03
1.631000000000000000e+03
1.630000000000000000e+03
1.629000000000000000e+03
1.627000000000000000e+03
1.626000000000000000e+03
1.627000000000000000e+03
1.622000000000000000e+03
1.626000000000000000e+03
1.623000000000000000e+03
1.624000000000000000e+03
1.623000000000000000e+03
1.618000000000000000e+03
1.619000000000000000e+03
1.617000000000000000e+03
1.619000000000000000e+03
1.621000000000000000e+03
1.619000000000000000e+03
1.621000000000000000e+03
1.622000000000000000e+03
1.625000000000000000e+03
1.627000000000000000e+03
1.629000000000000000e+03
1.635000000000000000e+03
1.637000000000000000e+03
1.637000000000000000e+03
1.642000000000000000e+03
1.641000000000000000e+03
1.638000000000000000e+03
1.643000000000000000e+03
1.640000000000000000e+03
1.643000000000000000e+03
1.641000000000000000e+03
1.638000000000000000e+03
1.641000000000000000e+03
1.638000000000000000e+03
1.636000000000000000e+03
1.635000000000000000e+03
1.635000000000000000e+03
1.638000000000000000e+03
1.633000000000000000e+03
1.636000000000000000e+03
1.634000000000000000e+03
1.631000000000000000e+03
1.633000000000000000e+03
1.631000000000000000e+03
1.635000000000000000e+03
1.632000000000000000e+03
1.634000000000000000e+03
1.636000000000000000e+03
1.633000000000000000e+03
1.636000000000000000e+03
1.639000000000000000e+03
1.638000000000000000e+03
1.641000000000000000e+03
1.645000000000000000e+03
1.647000000000000000e+03
1.648000000000000000e+03
1.648000000000000000e+03
1.648000000000000000e+03
1.648000000000000000e+03
1.648000000000000000e+03
1.648000000000000000e+03
1.647000000000000000e+03
1.648000000000000000e+03
1.648000000000000000e+03
1.648000000000000000e+03
1.648000000000000000e+03
1.648000000000000000e+03
1.645000000000000000e+03
1.645000000000000000e+03
1.648000000000000000e+03
1.648000000000000000e+03
1.647000000000000000e+03
1.648000000000000000e+03
1.648000000000000000e+03
1.645000000000000000e+03
1.646000000000000000e+03
1.643000000000000000e+03
1.646000000000000000e+03
1.642000000000000000e+03
1.645000000000000000e+03
1.642000000000000000e+03
1.645000000000000000e+03
1.638000000000000000e+03
1.637000000000000000e+03
1.643000000000000000e+03
1.639000000000000000e+03
1.642000000000000000e+03
1.639000000000000000e+03
1.646000000000000000e+03
1.648000000000000000e+03
1.648000000000000000e+03
1.648000000000000000e+03
1.648000000000000000e+03
1.648000000000000000e+03
1.648000000000000000e+03
1.647000000000000000e+03
1.645000000000000000e+03
1.643000000000000000e+03
1.641000000000000000e+03
1.640000000000000000e+03
1.637000000000000000e+03
1.637000000000000000e+03
1.636000000000000000e+03
1.639000000000000000e+03
1.643000000000000000e+03
1.645000000000000000e+03
1.646000000000000000e+03
1.648000000000000000e+03
1.648000000000000000e+03
1.652000000000000000e+03
1.652000000000000000e+03
1.655000000000000000e+03
1.660000000000000000e+03
1.664000000000000000e+03
1.666000000000000000e+03
1.671000000000000000e+03
1.677000000000000000e+03
1.680000000000000000e+03
1.688000000000000000e+03
1.691000000000000000e+03
1.697000000000000000e+03
1.702000000000000000e+03
1.711000000000000000e+03
1.713000000000000000e+03
1.718000000000000000e+03
1.724000000000000000e+03
1.729000000000000000e+03
1.731000000000000000e+03
1.739000000000000000e+03
1.742000000000000000e+03
1.742000000000000000e+03
1.744000000000000000e+03
1.744000000000000000e+03
1.745000000000000000e+03
1.748000000000000000e+03
1.749000000000000000e+03
1.751000000000000000e+03
1.755000000000000000e+03
1.754000000000000000e+03
1.755000000000000000e+03
1.756000000000000000e+03
1.759000000000000000e+03
1.755000000000000000e+03
1.759000000000000000e+03
1.759000000000000000e+03
1.757000000000000000e+03
1.761000000000000000e+03
1.759000000000000000e+03
1.759000000000000000e+03
1.759000000000000000e+03
1.758000000000000000e+03
1.758000000000000000e+03
1.758000000000000000e+03
1.755000000000000000e+03
1.755000000000000000e+03
1.750000000000000000e+03
1.750000000000000000e+03
1.747000000000000000e+03
1.743000000000000000e+03
1.740000000000000000e+03
1.733000000000000000e+03
1.729000000000000000e+03
1.727000000000000000e+03
1.723000000000000000e+03
1.715000000000000000e+03
1.712000000000000000e+03
1.709000000000000000e+03
1.706000000000000000e+03
1.697000000000000000e+03
1.692000000000000000e+03
1.687000000000000000e+03
1.681000000000000000e+03
1.677000000000000000e+03
1.674000000000000000e+03
1.669000000000000000e+03
1.665000000000000000e+03
1.659000000000000000e+03
1.658000000000000000e+03
1.651000000000000000e+03
1.653000000000000000e+03
1.648000000000000000e+03
1.647000000000000000e+03
1.646000000000000000e+03
1.645000000000000000e+03
1.646000000000000000e+03
1.643000000000000000e+03
1.645000000000000000e+03
1.648000000000000000e+03
1.648000000000000000e+03
1.648000000000000000e+03
1.648000000000000000e+03
1.648000000000000000e+03
1.648000000000000000e+03
1.649000000000000000e+03
1.649000000000000000e+03
1.650000000000000000e+03
1.649000000000000000e+03
1.648000000000000000e+03
1.649000000000000000e+03
1.649000000000000000e+03
1.648000000000000000e+03
1.650000000000000000e+03
1.648000000000000000e+03
1.648000000000000000e+03
1.650000000000000000e+03
1.648000000000000000e+03
1.648000000000000000e+03
1.648000000000000000e+03
1.648000000000000000e+03
1.650000000000000000e+03
1.649000000000000000e+03
1.649000000000000000e+03
1.650000000000000000e+03
1.649000000000000000e+03
1.652000000000000000e+03
1.651000000000000000e+03
1.654000000000000000e+03
1.654000000000000000e+03
1.653000000000000000e+03
1.653000000000000000e+03
1.651000000000000000e+03
1.649000000000000000e+03
1.650000000000000000e+03
1.648000000000000000e+03
1.650000000000000000e+03
1.648000000000000000e+03
1.648000000000000000e+03
1.648000000000000000e+03
1.646000000000000000e+03
1.649000000000000000e+03
1.648000000000000000e+03
1.648000000000000000e+03
1.649000000000000000e+03
1.648000000000000000e+03
1.650000000000000000e+03
1.648000000000000000e+03
1.648000000000000000e+03
1.648000000000000000e+03
1.648000000000000000e+03
1.648000000000000000e+03
1.648000000000000000e+03
1.647000000000000000e+03
1.647000000000000000e+03
1.646000000000000000e+03
1.648000000000000000e+03
1.645000000000000000e+03
1.646000000000000000e+03
1.647000000000000000e+03
1.646000000000000000e+03
1.643000000000000000e+03
1.641000000000000000e+03
1.639000000000000000e+03
1.634000000000000000e+03
1.622000000000000000e+03
1.622000000000000000e+03
1.614000000000000000e+03
1.601000000000000000e+03
1.593000000000000000e+03
1.582000000000000000e+03
1.572000000000000000e+03
1.559000000000000000e+03
1.552000000000000000e+03
1.547000000000000000e+03
1.550000000000000000e+03
1.559000000000000000e+03
1.575000000000000000e+03
1.599000000000000000e+03
1.627000000000000000e+03
1.664000000000000000e+03
1.707000000000000000e+03
1.753000000000000000e+03
1.802000000000000000e+03
1.855000000000000000e+03
1.905000000000000000e+03
1.963000000000000000e+03
2.011000000000000000e+03
2.069000000000000000e+03
2.119000000000000000e+03
2.165000000000000000e+03
2.215000000000000000e+03
2.256000000000000000e+03
2.295000000000000000e+03
2.337000000000000000e+03
2.374000000000000000e+03
2.416000000000000000e+03
2.449000000000000000e+03
2.481000000000000000e+03
2.512000000000000000e+03
2.543000000000000000e+03
2.575000000000000000e+03
2.587000000000000000e+03
2.595000000000000000e+03
2.592000000000000000e+03
2.578000000000000000e+03
2.550000000000000000e+03
2.512000000000000000e+03
2.464000000000000000e+03
2.409000000000000000e+03
2.346000000000000000e+03
2.278000000000000000e+03
2.205000000000000000e+03
2.132000000000000000e+03
2.065000000000000000e+03
1.990000000000000000e+03
1.931000000000000000e+03
1.872000000000000000e+03
1.825000000000000000e+03
1.783000000000000000e+03
1.745000000000000000e+03
1.719000000000000000e+03
1.693000000000000000e+03
1.666000000000000000e+03
1.643000000000000000e+03
1.617000000000000000e+03
1.595000000000000000e+03
1.570000000000000000e+03
1.545000000000000000e+03
1.520000000000000000e+03
1.498000000000000000e+03
1.483000000000000000e+03
1.471000000000000000e+03
1.461000000000000000e+03
1.461000000000000000e+03
1.466000000000000000e+03
1.474000000000000000e+03
1.488000000000000000e+03
1.506000000000000000e+03
1.525000000000000000e+03
1.550000000000000000e+03
1.570000000000000000e+03
1.591000000000000000e+03
1.603000000000000000e+03
1.616000000000000000e+03
1.625000000000000000e+03
1.629000000000000000e+03
1.629000000000000000e+03
1.623000000000000000e+03
1.620000000000000000e+03
1.615000000000000000e+03
1.606000000000000000e+03
1.600000000000000000e+03
1.593000000000000000e+03
1.587000000000000000e+03
1.584000000000000000e+03
1.579000000000000000e+03
1.578000000000000000e+03
1.578000000000000000e+03
1.582000000000000000e+03
1.583000000000000000e+03
1.585000000000000000e+03
1.587000000000000000e+03
1.591000000000000000e+03
1.595000000000000000e+03
1.599000000000000000e+03
1.605000000000000000e+03
1.605000000000000000e+03
1.609000000000000000e+03
1.607000000000000000e+03
1.610000000000000000e+03
1.611000000000000000e+03
1.613000000000000000e+03
1.612000000000000000e+03
1.613000000000000000e+03
1.615000000000000000e+03
1.613000000000000000e+03
1.614000000000000000e+03
1.612000000000000000e+03
1.613000000000000000e+03
1.614000000000000000e+03
1.616000000000000000e+03
1.613000000000000000e+03
1.614000000000000000e+03
1.615000000000000000e+03
1.615000000000000000e+03
1.615000000000000000e+03
1.616000000000000000e+03
1.616000000000000000e+03
1.616000000000000000e+03
1.616000000000000000e+03
1.617000000000000000e+03
1.616000000000000000e+03
1.616000000000000000e+03
1.616000000000000000e+03
1.617000000000000000e+03
1.619000000000000000e+03
1.620000000000000000e+03
1.622000000000000000e+03
1.621000000000000000e+03
1.622000000000000000e+03
1.623000000000000000e+03
1.625000000000000000e+03
1.623000000000000000e+03
1.625000000000000000e+03
1.625000000000000000e+03
1.629000000000000000e+03
1.627000000000000000e+03
1.634000000000000000e+03
1.630000000000000000e+03
1.635000000000000000e+03
1.635000000000000000e+03
1.635000000000000000e+03
1.634000000000000000e+03
1.633000000000000000e+03
1.639000000000000000e+03
1.641000000000000000e+03
1.637000000000000000e+03
1.637000000000000000e+03
1.644000000000000000e+03
1.645000000000000000e+03
1.648000000000000000e+03
1.648000000000000000e+03
1.650000000000000000e+03
1.649000000000000000e+03
1.652000000000000000e+03
1.653000000000000000e+03
1.657000000000000000e+03
1.656000000000000000e+03
1.653000000000000000e+03
1.653000000000000000e+03
1.657000000000000000e+03
1.657000000000000000e+03
1.657000000000000000e+03
1.661000000000000000e+03
1.660000000000000000e+03
1.664000000000000000e+03
1.661000000000000000e+03
1.662000000000000000e+03
1.663000000000000000e+03
1.664000000000000000e+03
1.664000000000000000e+03
1.664000000000000000e+03
1.667000000000000000e+03
1.668000000000000000e+03
1.670000000000000000e+03
1.677000000000000000e+03
1.678000000000000000e+03
1.680000000000000000e+03
1.680000000000000000e+03
1.680000000000000000e+03
1.680000000000000000e+03
1.681000000000000000e+03
1.682000000000000000e+03
1.680000000000000000e+03
1.680000000000000000e+03
1.682000000000000000e+03
1.682000000000000000e+03
1.685000000000000000e+03
1.681000000000000000e+03
1.683000000000000000e+03
1.690000000000000000e+03
1.690000000000000000e+03
1.694000000000000000e+03
1.696000000000000000e+03
1.699000000000000000e+03
1.706000000000000000e+03
1.710000000000000000e+03
1.712000000000000000e+03
1.713000000000000000e+03
1.715000000000000000e+03
1.721000000000000000e+03
1.721000000000000000e+03
1.721000000000000000e+03
1.726000000000000000e+03
1.726000000000000000e+03
1.727000000000000000e+03
1.727000000000000000e+03
1.727000000000000000e+03
1.728000000000000000e+03
1.728000000000000000e+03
1.734000000000000000e+03
1.735000000000000000e+03
1.734000000000000000e+03
1.737000000000000000e+03
1.743000000000000000e+03
1.743000000000000000e+03
1.743000000000000000e+03
1.745000000000000000e+03
1.747000000000000000e+03
1.750000000000000000e+03
1.758000000000000000e+03
1.760000000000000000e+03
1.765000000000000000e+03
1.771000000000000000e+03
1.776000000000000000e+03
1.781000000000000000e+03
1.783000000000000000e+03
1.792000000000000000e+03
1.794000000000000000e+03
1.799000000000000000e+03
1.807000000000000000e+03
1.807000000000000000e+03
1.808000000000000000e+03
1.814000000000000000e+03
1.817000000000000000e+03
1.822000000000000000e+03
1.824000000000000000e+03
1.825000000000000000e+03
1.828000000000000000e+03
1.831000000000000000e+03
1.834000000000000000e+03
1.835000000000000000e+03
1.835000000000000000e+03
1.837000000000000000e+03
1.837000000000000000e+03
1.838000000000000000e+03
1.833000000000000000e+03
1.837000000000000000e+03
1.833000000000000000e+03
1.831000000000000000e+03
1.826000000000000000e+03
1.824000000000000000e+03
1.819000000000000000e+03
1.815000000000000000e+03
1.811000000000000000e+03
1.808000000000000000e+03
1.803000000000000000e+03
1.799000000000000000e+03
1.793000000000000000e+03
1.792000000000000000e+03
1.792000000000000000e+03
1.787000000000000000e+03
1.787000000000000000e+03
1.786000000000000000e+03
1.785000000000000000e+03
1.789000000000000000e+03
1.789000000000000000e+03
1.785000000000000000e+03
1.791000000000000000e+03
1.787000000000000000e+03
1.787000000000000000e+03
1.779000000000000000e+03
1.776000000000000000e+03
1.770000000000000000e+03
1.760000000000000000e+03
1.753000000000000000e+03
1.744000000000000000e+03
1.733000000000000000e+03
1.721000000000000000e+03
1.710000000000000000e+03
1.697000000000000000e+03
1.684000000000000000e+03
1.675000000000000000e+03
1.664000000000000000e+03
1.651000000000000000e+03
1.646000000000000000e+03
1.639000000000000000e+03
1.630000000000000000e+03
1.626000000000000000e+03
1.621000000000000000e+03
1.619000000000000000e+03
1.616000000000000000e+03
1.616000000000000000e+03
1.616000000000000000e+03
1.612000000000000000e+03
1.614000000000000000e+03
1.610000000000000000e+03
1.609000000000000000e+03
1.607000000000000000e+03
1.603000000000000000e+03
1.603000000000000000e+03
1.602000000000000000e+03
1.600000000000000000e+03
1.600000000000000000e+03
1.601000000000000000e+03
1.600000000000000000e+03
1.600000000000000000e+03
1.603000000000000000e+03
1.605000000000000000e+03
1.606000000000000000e+03
1.608000000000000000e+03
1.611000000000000000e+03
1.613000000000000000e+03
1.613000000000000000e+03
1.614000000000000000e+03
1.616000000000000000e+03
1.616000000000000000e+03
1.614000000000000000e+03
1.616000000000000000e+03
1.616000000000000000e+03
1.616000000000000000e+03
1.613000000000000000e+03
1.612000000000000000e+03
1.614000000000000000e+03
1.611000000000000000e+03
1.614000000000000000e+03
1.612000000000000000e+03
1.613000000000000000e+03
1.613000000000000000e+03
1.611000000000000000e+03
1.611000000000000000e+03
1.606000000000000000e+03
1.605000000000000000e+03
1.606000000000000000e+03
1.603000000000000000e+03
1.605000000000000000e+03
1.602000000000000000e+03
1.605000000000000000e+03
1.610000000000000000e+03
1.607000000000000000e+03
1.610000000000000000e+03
1.612000000000000000e+03
1.611000000000000000e+03
1.613000000000000000e+03
1.611000000000000000e+03
1.609000000000000000e+03
1.611000000000000000e+03
1.605000000000000000e+03
1.605000000000000000e+03
1.606000000000000000e+03
1.605000000000000000e+03
1.602000000000000000e+03
1.603000000000000000e+03
1.602000000000000000e+03
1.605000000000000000e+03
1.606000000000000000e+03
1.610000000000000000e+03
1.611000000000000000e+03
1.616000000000000000e+03
1.616000000000000000e+03
1.617000000000000000e+03
1.621000000000000000e+03
1.622000000000000000e+03
1.621000000000000000e+03
1.620000000000000000e+03
1.623000000000000000e+03
1.623000000000000000e+03
1.621000000000000000e+03
1.616000000000000000e+03
1.617000000000000000e+03
1.617000000000000000e+03
1.616000000000000000e+03
1.614000000000000000e+03
1.616000000000000000e+03
1.615000000000000000e+03
1.617000000000000000e+03
1.616000000000000000e+03
1.616000000000000000e+03
1.616000000000000000e+03
1.617000000000000000e+03
1.625000000000000000e+03
1.626000000000000000e+03
1.627000000000000000e+03
1.626000000000000000e+03
1.627000000000000000e+03
1.631000000000000000e+03
1.629000000000000000e+03
1.628000000000000000e+03
1.627000000000000000e+03
1.625000000000000000e+03
1.622000000000000000e+03
1.622000000000000000e+03
1.620000000000000000e+03
1.619000000000000000e+03
1.621000000000000000e+03
1.622000000000000000e+03
1.621000000000000000e+03
1.621000000000000000e+03
1.623000000000000000e+03
1.623000000000000000e+03
1.630000000000000000e+03
1.630000000000000000e+03
1.631000000000000000e+03
1.634000000000000000e+03
1.635000000000000000e+03
1.636000000000000000e+03
1.632000000000000000e+03
1.633000000000000000e+03
1.632000000000000000e+03
1.633000000000000000e+03
1.631000000000000000e+03
1.631000000000000000e+03
1.627000000000000000e+03
1.623000000000000000e+03
1.630000000000000000e+03
1.625000000000000000e+03
1.622000000000000000e+03
1.623000000000000000e+03
1.621000000000000000e+03
1.620000000000000000e+03
1.625000000000000000e+03
1.622000000000000000e+03
1.621000000000000000e+03
1.624000000000000000e+03
1.625000000000000000e+03
1.626000000000000000e+03
1.625000000000000000e+03
1.626000000000000000e+03
1.629000000000000000e+03
1.629000000000000000e+03
1.630000000000000000e+03
1.630000000000000000e+03
1.630000000000000000e+03
1.632000000000000000e+03
1.634000000000000000e+03
1.635000000000000000e+03
1.633000000000000000e+03
1.637000000000000000e+03
1.638000000000000000e+03
1.638000000000000000e+03
1.639000000000000000e+03
1.638000000000000000e+03
1.636000000000000000e+03
1.635000000000000000e+03
1.636000000000000000e+03
1.633000000000000000e+03
1.631000000000000000e+03
1.630000000000000000e+03
1.632000000000000000e+03
1.631000000000000000e+03
1.631000000000000000e+03
1.632000000000000000e+03
1.635000000000000000e+03
1.634000000000000000e+03
1.643000000000000000e+03
1.641000000000000000e+03
1.643000000000000000e+03
1.646000000000000000e+03
1.647000000000000000e+03
1.648000000000000000e+03
1.648000000000000000e+03
1.648000000000000000e+03
1.648000000000000000e+03
1.648000000000000000e+03
1.648000000000000000e+03
1.648000000000000000e+03
1.648000000000000000e+03
1.648000000000000000e+03
1.648000000000000000e+03
1.646000000000000000e+03
1.648000000000000000e+03
1.648000000000000000e+03
1.648000000000000000e+03
1.646000000000000000e+03
1.647000000000000000e+03
1.648000000000000000e+03
1.645000000000000000e+03
1.647000000000000000e+03
1.643000000000000000e+03
1.643000000000000000e+03
1.645000000000000000e+03
1.638000000000000000e+03
1.639000000000000000e+03
1.641000000000000000e+03
1.641000000000000000e+03
1.642000000000000000e+03
1.644000000000000000e+03
1.642000000000000000e+03
1.644000000000000000e+03
1.646000000000000000e+03
1.647000000000000000e+03
1.648000000000000000e+03
1.648000000000000000e+03
1.647000000000000000e+03
1.648000000000000000e+03
1.648000000000000000e+03
1.647000000000000000e+03
1.647000000000000000e+03
1.648000000000000000e+03
1.647000000000000000e+03
1.648000000000000000e+03
1.648000000000000000e+03
1.648000000000000000e+03
1.648000000000000000e+03
1.648000000000000000e+03
1.648000000000000000e+03
1.648000000000000000e+03
1.648000000000000000e+03
1.648000000000000000e+03
1.646000000000000000e+03
1.646000000000000000e+03
1.646000000000000000e+03
1.642000000000000000e+03
1.642000000000000000e+03
1.641000000000000000e+03
1.641000000000000000e+03
1.642000000000000000e+03
1.643000000000000000e+03
1.645000000000000000e+03
1.648000000000000000e+03
1.653000000000000000e+03
1.660000000000000000e+03
1.664000000000000000e+03
1.671000000000000000e+03
1.679000000000000000e+03
1.682000000000000000e+03
1.689000000000000000e+03
1.696000000000000000e+03
1.703000000000000000e+03
1.710000000000000000e+03
1.712000000000000000e+03
1.719000000000000000e+03
1.722000000000000000e+03
1.726000000000000000e+03
1.731000000000000000e+03
1.735000000000000000e+03
1.738000000000000000e+03
1.743000000000000000e+03
1.744000000000000000e+03
1.745000000000000000e+03
1.744000000000000000e+03
1.746000000000000000e+03
1.749000000000000000e+03
1.750000000000000000e+03
1.751000000000000000e+03
1.755000000000000000e+03
1.760000000000000000e+03
1.761000000000000000e+03
1.763000000000000000e+03
1.762000000000000000e+03
1.762000000000000000e+03
1.762000000000000000e+03
1.759000000000000000e+03
1.760000000000000000e+03
1.757000000000000000e+03
1.755000000000000000e+03
1.751000000000000000e+03
1.751000000000000000e+03
1.746000000000000000e+03
1.744000000000000000e+03
1.744000000000000000e+03
1.743000000000000000e+03
1.744000000000000000e+03
1.744000000000000000e+03
1.739000000000000000e+03
1.738000000000000000e+03
1.735000000000000000e+03
1.734000000000000000e+03
1.732000000000000000e+03
1.731000000000000000e+03
1.732000000000000000e+03
1.728000000000000000e+03
1.726000000000000000e+03
1.725000000000000000e+03
1.718000000000000000e+03
1.717000000000000000e+03
1.712000000000000000e+03
1.710000000000000000e+03
1.705000000000000000e+03
1.698000000000000000e+03
1.693000000000000000e+03
1.683000000000000000e+03
1.678000000000000000e+03
1.667000000000000000e+03
1.663000000000000000e+03
1.655000000000000000e+03
1.648000000000000000e+03
1.645000000000000000e+03
1.641000000000000000e+03
1.635000000000000000e+03
1.636000000000000000e+03
1.635000000000000000e+03
1.632000000000000000e+03
1.635000000000000000e+03
1.637000000000000000e+03
1.643000000000000000e+03
1.645000000000000000e+03
1.647000000000000000e+03
1.648000000000000000e+03
1.649000000000000000e+03
1.651000000000000000e+03
1.651000000000000000e+03
1.654000000000000000e+03
1.653000000000000000e+03
1.653000000000000000e+03
1.654000000000000000e+03
1.650000000000000000e+03
1.650000000000000000e+03
1.648000000000000000e+03
1.648000000000000000e+03
1.648000000000000000e+03
1.648000000000000000e+03
1.647000000000000000e+03
1.645000000000000000e+03
1.644000000000000000e+03
1.646000000000000000e+03
1.645000000000000000e+03
1.647000000000000000e+03
1.644000000000000000e+03
1.642000000000000000e+03
1.643000000000000000e+03
1.642000000000000000e+03
1.644000000000000000e+03
1.642000000000000000e+03
1.637000000000000000e+03
1.645000000000000000e+03
1.642000000000000000e+03
1.638000000000000000e+03
1.642000000000000000e+03
1.641000000000000000e+03
1.645000000000000000e+03
1.645000000000000000e+03
1.642000000000000000e+03
1.645000000000000000e+03
1.648000000000000000e+03
1.648000000000000000e+03
1.648000000000000000e+03
1.648000000000000000e+03
1.649000000000000000e+03
1.652000000000000000e+03
1.655000000000000000e+03
1.652000000000000000e+03
1.654000000000000000e+03
1.654000000000000000e+03
1.655000000000000000e+03
1.658000000000000000e+03
1.653000000000000000e+03
1.655000000000000000e+03
1.655000000000000000e+03
1.655000000000000000e+03
1.656000000000000000e+03
1.654000000000000000e+03
1.659000000000000000e+03
1.657000000000000000e+03
1.655000000000000000e+03
1.658000000000000000e+03
1.653000000000000000e+03
1.654000000000000000e+03
1.648000000000000000e+03
1.647000000000000000e+03
1.643000000000000000e+03
1.630000000000000000e+03
1.621000000000000000e+03
1.611000000000000000e+03
1.600000000000000000e+03
1.587000000000000000e+03
1.574000000000000000e+03
1.561000000000000000e+03
1.552000000000000000e+03
1.546000000000000000e+03
1.549000000000000000e+03
1.552000000000000000e+03
1.563000000000000000e+03
1.585000000000000000e+03
1.611000000000000000e+03
1.647000000000000000e+03
1.681000000000000000e+03
1.730000000000000000e+03
1.778000000000000000e+03
1.831000000000000000e+03
1.881000000000000000e+03
1.934000000000000000e+03
1.987000000000000000e+03
2.038000000000000000e+03
2.096000000000000000e+03
2.145000000000000000e+03
2.189000000000000000e+03
2.236000000000000000e+03
2.274000000000000000e+03
2.315000000000000000e+03
2.352000000000000000e+03
2.386000000000000000e+03
2.421000000000000000e+03
2.461000000000000000e+03
2.495000000000000000e+03
2.526000000000000000e+03
2.553000000000000000e+03
2.578000000000000000e+03
2.591000000000000000e+03
2.599000000000000000e+03
2.591000000000000000e+03
2.574000000000000000e+03
2.535000000000000000e+03
2.496000000000000000e+03
2.442000000000000000e+03
2.385000000000000000e+03
2.319000000000000000e+03
2.251000000000000000e+03
2.179000000000000000e+03
2.110000000000000000e+03
2.034000000000000000e+03
1.968000000000000000e+03
1.907000000000000000e+03
1.856000000000000000e+03
1.808000000000000000e+03
1.773000000000000000e+03
1.737000000000000000e+03
1.707000000000000000e+03
1.680000000000000000e+03
1.655000000000000000e+03
1.633000000000000000e+03
1.607000000000000000e+03
1.584000000000000000e+03
1.559000000000000000e+03
1.530000000000000000e+03
1.515000000000000000e+03
1.490000000000000000e+03
1.477000000000000000e+03
1.471000000000000000e+03
1.463000000000000000e+03
1.466000000000000000e+03
1.470000000000000000e+03
1.483000000000000000e+03
1.495000000000000000e+03
1.518000000000000000e+03
1.535000000000000000e+03
1.561000000000000000e+03
1.582000000000000000e+03
1.597000000000000000e+03
1.607000000000000000e+03
1.617000000000000000e+03
1.623000000000000000e+03
1.628000000000000000e+03
1.623000000000000000e+03
1.621000000000000000e+03
1.616000000000000000e+03
1.611000000000000000e+03
1.603000000000000000e+03
1.599000000000000000e+03
1.593000000000000000e+03
1.587000000000000000e+03
1.584000000000000000e+03
1.585000000000000000e+03
1.585000000000000000e+03
1.588000000000000000e+03
1.589000000000000000e+03
